Date,High,Low,Open,Close,Volume,Adj Close,Signal,MACD,SIGNAL LINE,plusDI,minusDI,adx,RSI-7,RSI-14,RSI,%R,%K,%D,STOCH,MACD-SL,DMI,MACD_n,SIGNAL LINE_n,MACD-SL_n,plusDI_n,minusDI_n,DMI_n,STOCH_n,%K_n,%D_n,RSI_n,%R_n,Trend GT
12/27/2004,18.10000038,17.57749939,18.10000038,17.60000038,2939200,15.53032875,wait or hold,0.04148786850409181,0.022779536804063215,25.622402036159404,21.977098798544773,0.0,38.18009871056321,46.447752902127995,46.447752902127995,-65.12029430214677,34.87970569785323,55.49825482693723,-20.618549129083995,0.018708331700028592,3.6453032376146304,0.050455363677133214,-0.031188207382621624,0.29118176004760343,0.3742897079100169,0.31148561145396014,0.017325185644538,-0.45679185590101756,-0.3024058860429355,0.1025347608579239,-0.16280670706233613,-0.3024058860429355,up
12/28/2004,17.84250069,17.625,17.625,17.82500076,3164800,15.72887325,wait or hold,0.040427610123131785,0.02350285126772289,25.344371657972083,21.73862384675077,0.0,45.21177112141073,49.47172564879378,49.47172564879378,-49.65634980928377,50.34365019071623,51.48910821475051,-1.1454580240342764,0.016924758855408895,3.6057478112213133,0.04953782273449581,-0.03039316921031454,0.28828511872065277,0.3593771994461368,0.2972545943922029,0.015406467488000564,-0.0175961492155704,0.006873003814324541,0.019217876192741068,-0.0739474949535388,0.006873003814324541,up
12/29/2004,17.93000031,17.70499992,17.875,17.81749916,4131600,15.72225571,wait or hold,0.03935955710162986,0.024150189736530076,25.48221951090027,21.517377503939173,0.0,45.012620319817536,49.37162591134921,49.37162591134921,-61.21599957977399,38.78400042022601,41.335785436265134,-2.551785016039126,0.015209367365099785,3.9648420069610957,0.04861353635889709,-0.029681640796378805,0.28549920846320664,0.36677084213698796,0.28405169632799465,0.03282507767872489,-0.04931442002077502,-0.22431999159548,-0.19178543816149174,-0.07688891822245847,-0.22431999159547988,up
12/30/2004,17.875,17.64999962,17.76250076,17.72500038,2900400,15.640625,wait or hold,0.03789429020849866,0.024709165656799943,25.22007917084757,21.547489733865945,0.0,42.330299206823284,48.07979616169368,48.07979616169368,-68.97270373099121,31.027296269008787,40.05164895998365,-9.024352690974865,0.013185124551698717,3.6725894369816245,0.04734550359397649,-0.02906723694253277,0.28221170304577003,0.3527106158219826,0.28584864671893384,0.01864875944773159,-0.19529658169851782,-0.3794540746198244,-0.21847197797609397,-0.11484923842033834,-0.3794540746198243,up
12/31/2004,17.91500092,17.72999954,17.77499962,17.84000015,2445600,15.74210453,wait or hold,0.03702096718594561,0.025208076981413495,25.183435286152527,21.35800585334119,0.0,46.91835414542708,49.83713628212748,49.83713628212748,-65.96739471095489,34.03260528904511,34.61463399275994,-0.5820287037148333,0.011812890204532113,3.8254294328113367,0.04658973533622923,-0.028518853676895994,0.2799831028894857,0.3507451750517079,0.2745411768299997,0.026062581059147716,-0.004888575612074564,-0.3193478942190979,-0.33146239533076716,-0.06320993092952076,-0.3193478942190978,up
1/3/2005,17.84000015,16.53750038,17.84000015,16.63750076,12024400,14.68101788,buy,0.030581767275830174,0.025425078653524776,23.72290788336814,25.429099700801995,0.0,23.809838666787684,36.08388674738539,36.08388674738539,-95.0248572857128,4.975142714287198,23.345014757447007,-18.36987204315981,0.005156688622305398,-1.7061918174338544,0.04101729218326078,-0.02828033416505038,0.26917298731626804,0.2724079537820352,0.5174841172410938,-0.24226020283393912,-0.40607523795207057,-0.9004971457142561,-0.5656642484620402,-0.4673481358588971,-0.900497145714256,up
1/4/2005,16.85000038,16.32500076,16.67749977,16.375,11683200,14.449388500000001,buy,0.02336444853278863,0.02534214322157799,23.16976033445425,25.779952032642612,0.0,21.156104200134422,33.885535992104835,33.885535992104835,-97.75031525873902,2.249684741260984,13.752477581531073,-11.50279284027009,-0.001977694688789361,-2.6101916981883626,0.03477146988020219,-0.028371493456820662,0.25758627270376233,0.242739190394621,0.5384212659144441,-0.2861105956337564,-0.2511952711759695,-0.9550063051747804,-0.7650134843076077,-0.531946507741843,-0.9550063051747805,up
1/5/2005,16.47500038,16.02499962,16.375,16.23749924,7855200,14.32805061,buy,0.016016368534458536,0.024968004303241007,22.706295285159225,26.59781238890599,0.0,19.807012963112356,32.759680751780905,32.759680751780905,-91.57583601186222,8.424163988137781,5.216330481228629,3.207833506909153,-0.008951635768782471,-3.8915171037467644,0.02841248760822257,-0.028782731910865444,0.24626012698172817,0.21788066049085586,0.5872271660585091,-0.34826394712670783,0.08058790076531186,-0.8315167202372444,-0.9424091378561869,-0.5650296794450442,-0.8315167202372444,up
1/6/2005,16.75,16.04750061,16.23749924,16.47750092,8714800,14.53983307,buy,0.010327962388604561,0.02438246783085761,23.21437123614718,25.775790239443964,0.0,29.023702099176916,36.71226909444579,36.71226909444579,-82.0614024813524,17.938597518647608,9.5374820826821,8.401115435965508,-0.014054505442253049,-2.561419003296784,0.02348977666257035,-0.029426330055533412,0.23797272609041809,0.24513195212596295,0.5381729104810036,-0.2837447747144922,0.19771707735798927,-0.6412280496270479,-0.8526082589098566,-0.448883167771989,-0.641228049627048,up
1/7/2005,16.48749924,16.14749908,16.48749924,16.37000084,4044400,14.44497204,buy,0.004545558026794794,0.02359142011075102,22.865080644102402,25.38795974679041,0.0,27.379320850525772,35.69999264212615,35.69999264212615,-86.32304917351091,13.676950826489078,13.346570777758131,0.3303800487309463,-0.019045862083956228,-2.522879102688009,0.018485720251300686,-0.030295817899616106,0.22986642980455518,0.22639731260857876,0.515029086291074,-0.2818753167464777,0.01568987311261183,-0.7264609834702185,-0.7734489179861773,-0.4786288353176341,-0.7264609834702183,up
1/10/2005,16.86249924,16.53249931,16.54999924,16.62750053,4525600,14.67218876,buy,0.00041049511449031684,0.02266963954360731,24.02514061934371,24.835162276329513,0.0,37.30573194353242,39.9698185578165,39.9698185578165,-76.11493861098546,23.885061389014542,18.500203244717053,5.384858144297489,-0.022259144429116993,-0.8100216569858034,0.014907262782296371,-0.03130900203209164,0.22464784483661804,0.2886185860974029,0.48204084088146515,-0.19878960688836955,0.1296884708253705,-0.5222987722197092,-0.6663476709150061,-0.353160321380692,-0.5222987722197092,up
1/11/2005,16.82500076,16.51499939,16.71249962,16.73749924,4511600,14.76925564,buy,-0.002892592993365639,0.021655932164269292,23.693498556683213,24.5702635836426,0.0,41.30422601051968,41.74930952857723,41.74930952857723,-71.50001520000004,28.499984799999964,22.020665671834504,6.479319128165461,-0.02454852515763493,-0.8767650269593865,0.012048791082829746,-0.03242322841994161,0.22092973775097047,0.27083054761525105,0.4662329843879205,-0.2020271327469818,0.15437292193056207,-0.4300003040000008,-0.5931864746852,-0.30087011281619225,-0.43000030400000067,up
1/12/2005,16.99500084,16.52499962,16.75749969,16.95000076,6363200,14.97018337,buy,-0.004930671037737255,0.020604356392062907,23.954591566698863,24.056092665627844,0.0,48.68102324764354,45.13304293962482,45.13304293962482,-58.42692215630083,41.57307784369917,31.3193746775712,10.253703166127966,-0.025535027429800163,-0.10150109892898129,0.010285051145864532,-0.03357907822245676,0.21932759222643838,0.28483459906856035,0.4355497824336625,-0.16442134485761983,0.2395003039118102,-0.16853844312601673,-0.3999434879081476,-0.201439360596806,-0.16853844312601662,up
1/13/2005,17.32749939,16.95000076,17.03750038,17.13500023,5078800,15.1335783,buy,-0.005923805716054886,0.019557725253368484,25.036752741692858,23.650125493039027,0.0,54.4902780733071,47.96683780266302,47.96683780266302,-46.50601429177312,53.49398570822688,41.18901611730865,12.304969590918233,-0.02548153096942337,1.3866272486538307,0.009425598633841625,-0.03472949308265072,0.21941447404819314,0.34287767258661916,0.4113236500194908,-0.09223658690877434,0.28576452576420386,0.06987971416453753,-0.19483555420930954,-0.11816851131908856,0.06987971416453753,up
1/14/2005,17.52750015,17.06999969,17.13750076,17.48749924,3964400,15.44490337,buy,-0.005140126838675485,0.018585655463971708,25.418931155633523,23.16624184138771,0.0,63.639875865343576,52.95294984352309,52.95294984352309,-23.228394211237894,76.77160578876212,57.27955644689603,19.492049341866085,-0.023725782302647193,2.2526893142458135,0.01010378941147505,-0.035797953105981106,0.2222659270534706,0.36337629172946184,0.38244784377337604,-0.05022644667121967,0.4478617784907455,0.5354321157752422,0.1395532378507276,0.028348016624336614,0.535432115775242,up
1/18/2005,18.0,17.70000076,17.70000076,17.90500069,7349200,15.81363678,buy,-0.0023933113575118625,0.01776186769884709,26.946236429249627,22.636382158433186,0.0,71.54492298478158,58.07705849783378,58.07705849783378,-4.810090720083738,95.18990927991626,75.15183359230171,20.03807568761455,-0.02015517905635895,4.309854270816441,0.012480866274150682,-0.036703427490994645,0.2280648250107602,0.4452952279558611,0.3508284131718069,0.049560614500017364,0.4601768457543953,0.903798185598325,0.5109695510136352,0.17891956469267023,0.9037981855983253,up
1/19/2005,18.05500031,17.71249962,17.90250015,17.72500038,3413600,15.65466022,buy,-0.0007187203776801709,0.017037799442591112,26.7788855713535,22.28844928835276,0.0,64.49232404219237,55.28151768150866,55.28151768150866,-16.256148661703133,83.74385133829686,85.23512213565839,-1.4912707973615227,-0.017756519820271283,4.49043628300074,0.01393004678878662,-0.03749929420181186,0.23196040768543624,0.4363191545458822,0.33006548367664634,0.05832012026483424,-0.02539560357764281,0.674877026765937,0.7205174348597652,0.09677280770534957,0.6748770267659372,up
1/20/2005,17.90500069,17.40500069,17.625,17.78000069,5607200,15.70323944,wait or hold,0.001099853782001503,0.016414687020113818,26.17896622407827,23.166889112264062,0.0,65.69772616153075,55.978785803425986,55.978785803425986,-13.546774705776032,86.45322529422397,88.462328637479,-2.0091033432550347,-0.015314833238112315,3.0120771118142073,0.01550382944280293,-0.03818419431980713,0.23592586964157536,0.4041417270208232,0.3824864697289141,-0.013390763481782364,-0.0370747884441609,0.7290645058844791,0.7875842742428878,0.11726197911420888,0.7290645058844794,up
1/21/2005,18.12000084,17.85250092,18.11249924,17.91250038,5141200,15.82026291,wait or hold,0.003428047237633791,0.015908002638804836,26.74665551992732,22.811981058545953,0.0,68.68552498877574,57.690325009813755,57.690325009813755,-9.904550795440516,90.09544920455949,86.76417527902674,3.3312739255327415,-0.012479955401171045,3.9346744613813662,0.017518633434249642,-0.03874112141679098,0.2405299004352215,0.4345904552655455,0.36130729543902795,0.03136173818981547,0.08337197349410808,0.8019089840911895,0.7522937595283887,0.16755543018469976,0.8019089840911897,up
1/24/2005,18.14249992,18.02000046,18.03750038,18.03249931,5111200,15.92623901,wait or hold,0.006166148880652145,0.015528666862870058,26.568988725603937,22.573073402851772,0.0,71.32457492649785,59.23610507804272,59.23610507804272,-5.194833266375461,94.80516673362455,90.45128041080265,4.353886322821893,-0.009362517982217914,3.9959153227521647,0.019888169396132138,-0.0391580720477297,0.24559282684675665,0.4250610736513074,0.3470504567279118,0.0343323534339981,0.10643595301691944,0.8961033346724907,0.8289180745581206,0.21297806142625375,0.8961033346724907,up
1/25/2005,18.22249985,17.87000084,18.09749985,17.97750092,3914800,15.87766933,wait or hold,0.008423973039406008,0.015252543955068296,26.140484595309488,22.89531254525642,0.0,68.24905525268632,58.18682848164267,58.18682848164267,-11.148983133439664,88.85101686656034,91.25054426824812,-2.3995274016877772,-0.006828570915662288,3.2451720500530676,0.021842076240100372,-0.0394615752444446,0.2497081259865881,0.40207771653945157,0.36628011040444464,-0.002084009112642171,-0.04588040483681999,0.7770203373312066,0.8455281367657264,0.1821451474249247,0.7770203373312068,up
1/26/2005,18.27000046,17.95000076,18.08749962,18.23500061,4766800,16.105093,wait or hold,0.011770609434599066,0.015117465966879764,25.97406120568271,22.558012905269845,0.0,74.30183594469649,61.61510081069507,61.61510081069507,-1.5747965067353509,98.42520349326465,94.02712903114984,4.398074462114806,-0.0033468565322806974,3.4160483004128643,0.02473823435387046,-0.03961004753726294,0.25536266249849127,0.39315138905474467,0.3461517199992339,0.006204698505530404,0.1074325714253257,0.9685040698652927,0.9032302900745095,0.2828846724057219,0.9685040698652929,up
1/27/2005,18.59749985,18.17499924,18.23749924,18.39249992,3816000,16.24419594,wait or hold,0.015631827073558924,0.01513738506902418,26.97797436129984,22.11862452663761,0.0,77.37905095629729,63.581926189439905,63.581926189439905,-8.367341451896756,91.63265854810325,92.96962630264272,-1.3369677545394723,0.0004944420045347436,4.859349834662229,0.028079707843541524,-0.03958815326117904,0.26160118767253127,0.4469975317955013,0.3199311737069992,0.07621503871994517,-0.021915455840934905,0.8326531709620648,0.881253584958184,0.34067968848301766,0.832653170962065,up
1/28/2005,18.52000046,18.26499939,18.39500046,18.5,5884000,16.33913994,wait or hold,0.01971962466348387,0.015314537281456963,26.657913971875214,21.856214329166,0.0,79.34824962550704,64.90377158449297,64.90377158449297,-4.681864512049061,95.31813548795094,95.12533250977292,0.1928029781780225,0.004405087382026907,4.801699642709213,0.03161726219946592,-0.03939343467297318,0.26795233674371355,0.4298306909007563,0.30427181841913953,0.07341859635756953,0.01258696261939618,0.9063627097590186,0.9260528259950493,0.37952201616720926,0.9063627097590188,up
1/31/2005,18.70000076,18.31749916,18.5,18.5625,6724800,16.39432907,wait or hold,0.023790305926127076,0.015641684581398925,27.02206547912488,21.46608370455817,0.0,80.49968197272582,65.68363909965947,65.68363909965947,-6.292937015412565,93.70706298458744,93.5526190068805,0.15444397770693286,0.00814862134472815,5.55598177456671,0.03514000419328078,-0.039033847516226516,0.2740320857250427,0.449362414266383,0.2809907336203308,0.11000661862171945,0.011721814491203908,0.8741412596917484,0.8933691648055193,0.40243836454480264,0.8741412596917488,up
2/1/2005,19.02499962,18.68250084,18.6875,18.98749924,5659200,16.76970291,wait or hold,0.029644564934557138,0.01618132473468443,27.954791152814934,21.003126805766158,0.0,86.47989399237366,70.4862518451649,70.4862518451649,-1.5000152000000355,98.49998479999996,95.84172775751274,2.6582570424872216,0.01346324019987271,6.9516643470487764,0.04020624316436505,-0.038440696759913795,0.28266338141853864,0.49939032702205277,0.2533637334846588,0.1777071021396126,0.06819276419621878,0.969999695999999,0.9409407375643568,0.543562779472093,0.9699996959999992,up
2/2/2005,19.15500069,18.92250061,19.0,19.15500069,4852000,16.91762924,wait or hold,0.03586466007787337,0.01693874040760191,28.260981837682746,20.773117962014844,0.0,88.15076325929537,72.14109013679948,72.14109013679948,-0.0,100.0,97.4023492615291,2.5976507384709038,0.018925919670271456,7.487863875667902,0.04558907442849991,-0.03760817590967913,0.2915351374320787,0.5158132488963529,0.23963793228350205,0.20371657454065017,0.06682585082954029,0.9999999999999998,0.9733731064532596,0.592190078419893,1.0,up
2/3/2005,19.67499924,18.97999954,19.625,19.31999969,8987600,17.06335831,wait or hold,0.0424053856322395,0.01791728606636462,29.767196860762613,20.101093392039353,0.0,89.62438420706245,73.70513621786382,73.70513621786382,-13.627624235098194,86.3723757649018,94.9574535216339,-8.58507775673209,0.02448809956587488,9.66610346872326,0.05124937723624723,-0.03653259787115137,0.3005684887763427,0.5966009830516781,0.19953479755469283,0.30937661255732585,-0.1853891836314524,0.7274475152980358,0.9225640151219401,0.6381494550771292,0.727447515298036,up
2/4/2005,19.43499947,19.04000092,19.35000038,19.16250038,6324400,16.92425728,wait or hold,0.047619401881917156,0.019056996568637397,29.218545673218525,19.73060204842836,0.0,78.7216873419865,69.68354705312154,69.68354705312154,-22.577056712216756,77.42294328778326,87.93177301756164,-10.508829729778384,0.02856240531327976,9.487943624790166,0.05576155414573236,-0.03527987391744869,0.30718543321018865,0.5671733876525284,0.17742568885167165,0.3007345990969923,-0.2287774470936662,0.5484588657556648,0.7765584261836649,0.5199753594281875,0.5484588657556648,up
2/7/2005,19.25,18.94750023,19.16250038,19.23999977,5828000,16.9927063,wait or hold,0.05277693181539078,0.020349152106898024,28.80332974326127,19.884761998683683,0.0,80.11066252922444,70.53547660145387,70.53547660145387,-19.162984487368863,80.83701551263114,81.54411152177202,-0.7070960091408836,0.032427779708492754,8.918567744577587,0.060224848152005794,-0.03385958851035542,0.3134630591849763,0.5449027598520884,0.18662519960036517,0.27311583881881085,-0.007709341113222634,0.6167403102526225,0.6438119572700087,0.5450092452396527,0.6167403102526228,up
2/8/2005,19.54500008,19.04999924,19.23749924,19.42250061,5128400,17.153886800000002,wait or hold,0.05840562368269886,0.0218056157791418,29.517648249447397,19.423479777898287,0.0,83.13515807701798,72.49558029888394,72.49558029888394,-11.123294770386458,88.87670522961355,82.37888801000928,6.497817219604272,0.03660000790355706,10.09416847154911,0.06509588273611255,-0.032258702209598256,0.3202390362087062,0.5832161299192611,0.15909813604547818,0.3301407950725952,0.1547901275143071,0.7775341045922708,0.6611600323392153,0.6026067452162047,0.777534104592271,up
2/9/2005,19.78750038,19.16749954,19.38750076,19.55999947,5892400,17.27532387,wait or hold,0.06423843734596701,0.023427565637811038,29.794172106740675,18.863717880904424,0.0,85.12359429946125,73.90412429119756,73.90412429119756,-11.757156252643078,88.24284374735691,85.98552149653382,2.257322250823094,0.04081087170815598,10.93045422583625,0.07014356304020719,-0.03047592014730438,0.32707776004067957,0.5980478342432125,0.12569428777246427,0.3707065734527599,0.05915008893681706,0.764856874947138,0.7361120097283518,0.64399670467122,0.7648568749471383,up
2/10/2005,20.05750084,19.67749977,19.73749924,20.0,4697600,17.6639328,wait or hold,0.07178637899419371,0.025273838926256745,30.358907115847483,18.428495169127576,0.0,89.67045373231562,77.8187690577388,77.8187690577388,-2.628609828571403,97.37139017142859,91.49697971613297,5.874410455295617,0.04651254006793697,11.930411946719907,0.07667550432853276,-0.028446570791564096,0.3363376499595738,0.6283381056087418,0.09972232807453052,0.4192116006960831,0.14072982384058652,0.9474278034285715,0.8506494844676094,0.7590282472088379,0.9474278034285719,up
2/11/2005,20.40250015,19.87750053,20.0,20.3125,6347200,17.93993568,wait or hold,0.08027188238240868,0.02737119460201335,31.21669528380478,17.98138405810236,0.0,91.75782214780111,80.1018187811712,80.1018187811712,-3.553807483564587,96.4461925164354,94.02014214507359,2.4260503713618107,0.05290068778039533,13.235311225702418,0.0840188056571447,-0.026141241772295376,0.34671242815962966,0.674346651143507,0.07304092693938213,0.4825084519078593,0.06295557958737397,0.9289238503287078,0.9030850906997563,0.8261154919113882,0.9289238503287083,up
2/14/2005,20.5625,20.32500076,20.32500076,20.53750038,7218800,18.138652800000003,wait or hold,0.08917360093461824,0.029725450198530984,31.598998210170254,17.771693534634494,0.0,92.95386994845384,81.57248593007203,81.57248593007203,-0.9569235319662381,99.04307646803376,97.62021971863254,1.4228567494012196,0.05944815073608725,13.82730467553576,0.09172229697413048,-0.02355353869066601,0.3573459449466485,0.6948519486666078,0.06052762357267172,0.5112243244016086,0.0403295707343132,0.9808615293606748,0.9779008250683037,0.8693309356582635,0.9808615293606753,up
2/15/2005,20.72249985,20.36499977,20.53750038,20.54249954,4679200,18.143064499999998,wait or hold,0.09733025726515976,0.032298020970731436,31.819306774693757,17.47409560307652,11.48343868404813,92.98027501266918,81.6050170390146,81.6050170390146,-7.065761212908873,92.93423878709113,96.14116925718673,-3.2069304700955996,0.06503223629442832,14.345211171617237,0.09878101612475665,-0.0207258723468845,0.3664148725490799,0.7066684751718824,0.04276843666568175,0.5363464552450274,-0.06409055746725756,0.8586847757418223,0.9471636411659539,0.8702868598519748,0.8586847757418226,up
2/16/2005,21.32500076,20.5625,20.5625,21.24749947,8003200,18.76571846,wait or hold,0.10836194782905295,0.03518954935841841,33.449411411161456,16.84359131056626,11.932078545483563,95.65761576789022,85.49414455097954,85.49414455097954,-2.5327207614943217,97.46727923850567,96.48153149787682,0.9857477406288524,0.07317239847063454,16.605820100595196,0.10832777184076758,-0.01754762061818338,0.3796350391594916,0.7941011843125962,0.005143028727764287,0.6460019890706754,0.030471022906918055,0.9493455847701131,0.9542369473567922,0.9845685797798056,0.9493455847701135,up
2/17/2005,21.41250038,20.81749916,21.36249924,20.88999939,8656800,18.44997406,wait or hold,0.1166118404110641,0.038281750657509335,32.93852836333049,16.38449622367205,12.382711988411678,78.04703035458974,76.64487058526032,76.64487058526032,-16.882093183795288,83.11790681620472,91.17314161393381,-8.055234797729085,0.07833008975355477,16.554032139658442,0.11546717705773157,-0.014148797294789128,0.3880114740030851,0.7666993305133716,-0.0222535173891798,0.643489906405927,-0.17343911614826335,0.6623581363240942,0.8439195779760125,0.7245333287360531,0.6623581363240942,up
2/18/2005,21.52750015,20.94499969,20.96249962,21.39249992,8029200,18.89378548,wait or hold,0.12668031793163337,0.0416357385732665,32.507030306899736,15.909987693964553,12.838892099862086,83.13772978705896,79.8084956683073,79.8084956683073,-4.745176194787995,95.25482380521201,91.94666995330743,3.308153851904578,0.08504457935836687,16.597042612935184,0.12418037425668382,-0.010462228649400718,0.39891625321485047,0.743555390413646,-0.05056986227746685,0.6455762187914074,0.08285052381665503,0.9050964761042399,0.8599948123515622,0.8174962142637556,0.9050964761042399,up
2/22/2005,22.08250046,21.55500031,21.55500031,21.64999962,9565600,19.12120438,wait or hold,0.13716694272974905,0.04525707461018272,33.99373553492768,15.416464220810147,13.354707877003804,85.1907957164158,81.21288557399116,81.21288557399116,-13.686736092724804,86.3132639072752,88.22866484289727,-1.915400935622074,0.09190986811956633,18.57727131411753,0.133255433482941,-0.006481801699920631,0.4100659403202178,0.8232966922124163,-0.08002092585459597,0.7416313270153638,-0.0349614262195157,0.7262652781455037,0.7827283432164651,0.8587641061950608,0.7262652781455039,up
2/23/2005,21.78750038,21.54500008,21.57500076,21.61000061,7080800,19.08588219,wait or hold,0.14649771041790416,0.0490915029427566,33.619422928885506,15.292118187595621,13.857116197454916,83.35163252514448,80.27882034990235,80.27882034990235,-15.071764444495702,84.92823555550429,88.83210775599713,-3.9038722004928417,0.09740620747514755,18.327304741289886,0.141330221227008,-0.002267152267987682,0.41899236223359715,0.803219965553504,-0.08744128806423501,0.7295061789498931,-0.07980936729303911,0.6985647111100854,0.7952689131821367,0.8313166697185665,0.6985647111100861,up
2/24/2005,22.08250046,21.61750031,21.72500038,22.08250046,6450000,19.50319481,wait or hold,0.15738842227763783,0.0531897520580049,34.23724847368493,14.964232260872798,14.38450165714224,87.16915818375567,82.79602325547887,82.79602325547887,-0.0,100.0,90.41383315425979,9.586166845740209,0.10419867021963293,19.27301621281213,0.1507549748580279,0.002237478359417233,0.4300237750277536,0.8363578144680397,-0.10700791417066646,0.7753798791399102,0.2244447031143142,0.9999999999999998,0.8281398568833354,0.9052844880972639,1.0,up
2/25/2005,22.9375,22.08499908,22.08499908,22.875,7637600,20.20312309,wait or hold,0.1713691803764874,0.057658381850732965,36.743739924451326,14.393883250853781,14.995351828434002,91.14319273616205,86.01929206332841,86.01929206332841,-1.5664161303949145,98.43358386960509,94.45393980836975,3.9796440612353337,0.11371079852575444,22.349856673597543,0.16285383509357598,0.007149216533643976,0.44547210619173394,0.9707966308948321,-0.1410435494928538,0.9246284196100727,0.09799530054616468,0.9686716773921014,0.912100143871174,1.0,0.9686716773921018,up
2/28/2005,23.32500076,22.30500031,22.92499924,22.78000069,10749200,20.119213100000003,wait or hold,0.1836075729129263,0.062417114815750976,36.79905559166278,13.755136058682757,15.63258635366139,87.35917441244152,83.9879147729206,83.9879147729206,-12.74853511631032,87.25146488368968,95.22834958443156,-7.976884700741877,0.12119045809717531,23.04391953298002,0.17344486311646512,0.012379824449132215,0.4576195724931278,0.9737635561670057,-0.17916085330842324,0.9582953809223729,-0.17167200963037477,0.7450292976737933,0.9281936960000994,0.9403081308453038,0.7450292976737936,up
3/1/2005,22.70000076,21.86750031,22.60000038,21.98749924,8655200,19.41929245,wait or hold,0.1905955018071701,0.06725646362585498,35.36520697246884,15.087326638369609,16.144240723082767,62.218582040089466,69.28793757060043,69.28793757060043,-32.17080282660755,67.82919717339244,84.50474864222905,-16.675551468836602,0.12333903818131513,20.27788033409923,0.1794921728853367,0.01769904205978956,0.4611090099359305,0.8968572849564325,-0.09966224464359319,0.8241229015306937,-0.3678615656605356,0.3565839434678486,0.7053390315732444,0.5083504044882479,0.3565839434678493,up
3/2/2005,22.60499954,21.88999939,21.98500061,22.48999977,4772600,19.86309052,wait or hold,0.1994282099185405,0.07224300176961443,34.29584533599937,14.631120958122457,16.64523562647453,68.85002371240837,72.5666265436866,72.5666265436866,-22.892412977796088,77.10758702220392,77.39608302642866,-0.28849600422474,0.12718520814892606,19.664724377876908,0.18713594300032477,0.023180044267177458,0.4673554466386791,0.8395007307598419,-0.12688636512428753,0.7943804976871716,0.0017317550119837488,0.5421517404440781,0.5576088708865168,0.6046944337852944,0.5421517404440783,up
3/3/2005,23.29999924,22.68000031,22.85000038,22.94000053,5651600,20.26052856,wait or hold,0.2096903439423592,0.07742499700140054,36.03685007929896,14.1365662841788,17.207817758340514,73.67712615763378,75.1274142778538,75.1274142778538,-11.167518616815364,88.83248138318463,77.9230885262603,10.909392856924327,0.13226534694095865,21.90028379512016,0.19601672932069336,0.028875885045942518,0.4756059310615812,0.9328817063905634,-0.15639896571365008,0.9028209528912454,0.2542887160628218,0.7766496276636923,0.5685609414129278,0.6799429890796056,0.7766496276636929,up
3/4/2005,23.65999985,22.78000069,22.94000053,23.39500046,3801200,20.66238403,wait or hold,0.22129367934436317,0.08284548485285628,36.21297720106127,13.625553499539267,17.79351336908609,77.74526760050414,77.42227968799997,77.42227968799997,-7.946010863829055,92.05398913617094,85.9980191805198,6.055969955651136,0.1384481944915069,22.587423701522006,0.20605818288869293,0.03483386732190863,0.48564728809792457,0.9423285057335824,-0.18689370573675745,0.9361521019827719,0.14482471317448486,0.8410797827234187,0.7363717328554822,0.7473774368490711,0.8410797827234189,up
3/7/2005,23.32500076,22.71999931,23.25,23.09499931,3633800,20.39742851,wait or hold,0.23018671640286925,0.0883932583284192,35.21575827918119,13.495122279358595,18.351792939865287,69.48469288738133,72.66192352560617,72.66192352560617,-17.147208688383405,82.85279131161658,87.91308727699068,-5.060295965374095,0.14179345807445004,21.72063599982259,0.21375416129556268,0.04093175683744388,0.49108021940382907,0.8888414166254317,-0.19467720209900985,0.8941067632578965,-0.10589132571992499,0.6570558262323314,0.7761701047171208,0.6074947284437222,0.657055826232332,up
3/8/2005,23.57999992,23.0,23.0,23.53000069,4038000,20.781612399999997,wait or hold,0.24039584759023214,0.09411302321607608,35.422207003221054,13.176702655188265,18.92308203745684,74.13392599168213,75.05677455177599,75.05677455177599,-4.196906095088175,95.80309390491183,90.23662478423309,5.566469120678747,0.14628282437415607,22.24550434803279,0.22258907929421134,0.0472186923969804,0.4983712498738073,0.899914553182213,-0.21367892563549484,0.9195665932061026,0.13378452114852202,0.9160618780982364,0.8244571655887989,0.6778672460327224,0.9160618780982364,up
3/9/2005,24.20499992,23.26000023,23.70000076,23.30999947,8835000,20.58730698,wait or hold,0.2483846946525361,0.09991473561621991,36.58258919946522,12.678906087052813,19.539769314442246,68.01920853118875,71.63873115909557,71.63873115909557,-26.42067156318507,73.57932843681492,84.07840455111442,-10.499076114299498,0.14846995903631618,23.903683112412406,0.22950257735823532,0.05359570136694369,0.5019233025242669,0.9621531093991464,-0.2433849865912765,1.0,-0.22855746424554635,0.4715865687362981,0.6964788763075067,0.5774282975791862,0.47158656873629856,up
3/10/2005,23.00499916,22.03499985,23.0,22.43000031,7807200,19.81010246,wait or hold,0.250841354692799,0.10558741638248013,34.772488669850254,16.805503847709087,19.858411517013113,49.11440275727674,59.89016117683317,59.89016117683317,-54.44783695613416,45.55216304386584,71.6448617951975,-26.09269875133166,0.14525393831031885,17.966984822141168,0.23162855552503037,0.059830883953602365,0.49670027024310426,0.8650660945040671,0.00287015549859726,0.7120281124980676,-0.5802557168194045,-0.08895673912268331,0.43808871301803687,0.23219745078006127,-0.0889567391226832,up
3/11/2005,22.89999962,22.36000061,22.43000031,22.69000053,4439600,20.03972816,wait or hold,0.25414587874034567,0.11116802654462996,34.04388121664269,16.453368702174735,20.17041534036375,53.56318658265129,61.8793393397123,61.8793393397123,-56.95486771157103,43.04513228842897,54.05887458970321,-11.013742301274242,0.1429778521957157,17.590512514467953,0.23448826987768512,0.06596486623459508,0.4930037544976744,0.8259863188204062,-0.01814354521271455,0.6937665408749101,-0.24016523511644117,-0.13909735423142078,0.072621991678959,0.29064930174080694,-0.13909735423142067,up
3/14/2005,22.92499924,22.22999954,22.77499962,22.88500023,3761600,20.21194649,wait or hold,0.25789195605140236,0.11667681347513716,33.13138216415156,16.513725865613555,20.447550392656762,56.86309880629088,63.347492513725435,63.347492513725435,-49.62405148114598,50.37594851885402,46.32441461704957,4.051533901804447,0.14121514257626522,16.617656298538005,0.23773010165086772,0.07201990330754415,0.49014099644071263,0.7770432862918226,-0.014541725330855182,0.6465761284484546,0.09961670257021571,0.007518970377080159,-0.08811323998610965,0.33379087252436657,0.007518970377080381,up
3/15/2005,23.18499947,22.43000031,22.82500076,22.44000053,3427000,19.81894302,wait or hold,0.2586734295577706,0.12200540416077525,33.16909071248765,16.036836873374796,20.746923496108963,47.81641248993754,57.87007952640553,57.87007952640553,-68.2125470929057,31.787452907094313,41.73617790479239,-9.94872499769808,0.13666802539699535,17.132253839112856,0.23840638391428182,0.0778768759142412,0.48275617468830023,0.77906583163341,-0.04300012456339286,0.6715377515287508,-0.21614485618671564,-0.3642509418581138,-0.18346460174715606,0.17283750315806068,-0.3642509418581139,up
3/16/2005,23.04000092,22.08499908,22.44000053,22.64999962,5241800,20.00440788,wait or hold,0.2601556901733133,0.12718712216390066,31.976201216011862,16.75931100755383,20.965183691936332,52.01914256223396,59.643461715851736,59.643461715851736,-66.52408810455378,33.47591189544623,38.54643777379815,-5.070525878351916,0.13296856800941265,15.216890208458032,0.23968912293982747,0.08357241197441057,0.4767480090064271,0.7150837055483115,0.00011359305279223797,0.5786290583455198,-0.10612205097229432,-0.3304817620910755,-0.24975282622817585,0.2249482056423049,-0.3304817620910757,up
3/17/2005,23.29000092,22.73999977,22.75,23.16500092,6963600,20.45925331,wait or hold,0.2638972092650178,0.13231240845571388,32.14643308976829,16.356702968039293,21.20661819011671,61.004742178036196,63.68103788322786,63.68103788322786,-44.49194325213166,55.50805674786834,40.25714051680291,15.250916231065425,0.13158480080930393,15.789730121728994,0.24292701005861628,0.08920592056675503,0.47450067872731627,0.7242143058617221,-0.023912082752695074,0.6064158487457347,0.3522073472709317,0.11016113495736657,-0.2142015139608503,0.343592078163274,0.11016113495736679,up
3/18/2005,24.21500015,23.75,24.0,24.10499954,9162200,21.28945541,wait or hold,0.27197813378115754,0.13754613052360543,34.31129574452762,15.72380257039251,21.538749250032684,72.12215875771716,69.6496585407316,69.6496585407316,-4.685862300207872,95.31413769979213,61.43270211436885,33.881435585423276,0.1344320032575521,18.587493174135112,0.2499201913727851,0.09495861740371137,0.47912472551221175,0.8403294328227249,-0.061680478508926884,0.7421271595773566,0.7723997075702291,0.9062827539958422,0.22586266777347208,0.5189795480360939,0.9062827539958425,up
3/21/2005,24.11000061,23.48500061,24.10499954,23.82999992,3921800,21.04657745,wait or hold,0.2776470766339152,0.142793872822068,33.522773480713816,16.336857197766058,21.808121124900484,65.7265137811666,66.22098792819442,66.22098792819442,-16.5591442645379,83.44085573546211,78.08768339437414,5.353172341087969,0.13485320381184718,17.18591628294776,0.2548260589068545,0.10072672471432553,0.4798087833213369,0.7980360510356499,-0.025096381117103883,0.6741407598817992,0.12897382985453398,0.6688171147092419,0.5719815026868498,0.41822831952500117,0.6688171147092419,up
3/22/2005,24.10499954,23.24500084,23.82999992,23.29999924,3800600,20.57847786,wait or hold,0.279719059215509,0.14792050880803687,32.4740185115062,16.698827145426655,22.02214158498914,54.79988056203303,60.082213002607205,60.082213002607205,-41.97251303130564,58.02748696869436,78.9274934679828,-20.900006499288438,0.13179855040747213,15.775191366079547,0.25661913961735316,0.10636171683621187,0.47484782233938727,0.7417847613139643,-0.0034957875862121623,0.605710616190265,-0.4631398397902683,0.16054973937388706,0.5894341842203263,0.23784087926041164,0.16054973937388728,up
3/23/2005,23.13500023,22.22500038,23.13500023,22.51499939,6357200,19.88517952,wait or hold,0.2770972278204695,0.1527550795937555,31.226875632984815,19.70147100707364,22.0348183833076,42.570718846686795,52.34260106861174,52.34260106861174,-77.98167550710885,22.018324492891157,54.495555732349146,-32.47723123945799,0.12434214822671402,11.525404625911175,0.2543502231976944,0.11167568263460015,0.4627381275925191,0.674892686955501,0.17568729098880564,0.3995658789627554,-0.7242523346574271,-0.559633510142177,0.08169696845498864,0.010412963700995315,-0.559633510142177,up
3/24/2005,23.25499916,22.45499992,22.58499908,22.74500084,4159400,20.08831787,wait or hold,0.2755124387634744,0.15734761284544763,30.766673637957155,19.14273193135027,22.06096971799739,46.641070872622215,54.20402897471078,54.20402897471078,-67.43115172965803,32.56884827034198,37.53821991064244,-4.969371640300459,0.1181648259180268,11.623941706606885,0.25297875670297065,0.11672361050847546,0.4527057439176867,0.6502091750648662,0.1423444796793889,0.40434562482981007,-0.10384062031367036,-0.34862303459316046,-0.27070530802731474,0.06511088295825851,-0.3486230345931606,up
3/28/2005,23.02000046,22.46500015,22.75,22.63999939,3214200,19.99557495,wait or hold,0.27311151037361725,0.16167688939364847,30.16063829773839,18.765662502420525,22.086576233214483,44.94444485217825,53.18276917328091,53.18276917328091,-72.24773134205529,27.752268657944704,27.446480473725885,0.3057881842188195,0.11143462097996878,11.394975795317865,0.2509010083563463,0.12148217720003429,0.4417754419559623,0.6177037085782731,0.11984282306430982,0.39323915749331895,0.015135228693045732,-0.444954626841106,-0.4804288158134389,0.03510124037351492,-0.44495462684110576,up
3/29/2005,23.11499977,22.35000038,22.63999939,22.375,4537400,19.76152229,wait or hold,0.2691049132621437,0.16569297786199655,29.346888834512036,18.66494422843274,22.089951030404517,40.59633230998026,50.59204507253919,50.59204507253919,-84.40366499032127,15.59633500967872,25.305817312655076,-9.709482302976356,0.10341193540014715,10.681944606079295,0.24743372438439493,0.12589650014823595,0.428746065177916,0.5740572342722712,0.11383244979546858,0.3586520979236474,-0.21074898124262975,-0.6880732998064256,-0.5249154367705764,-0.04102699280484601,-0.6880732998064255,up
3/30/2005,23.19000053,22.04999924,22.45000076,23.18499947,7224800,20.47691727,wait or hold,0.26934035962852576,0.16956638693180226,28.189382483975628,18.966713294658227,22.03719674804377,55.83350374673615,57.419861442916776,57.419861442916776,-47.24773111269751,52.75226888730249,32.033624184975245,20.718644702327246,0.0997739726967235,9.2226691893174,0.24763747819085413,0.13015399563902874,0.4228377709669844,0.5119729276511458,0.13184054958900604,0.28786691134296105,0.4755263856786165,0.055045377746049784,-0.38510016847212225,0.15960787857891923,0.055045377746049784,up
3/31/2005,24.42000008,23.82500076,23.875,24.37000084,6218600,21.52350044,wait or hold,0.2755125253420623,0.17352438096844858,31.175103947548337,18.173648540375016,22.1269648788434,69.28181071210211,65.03297689692764,65.03297689692764,-2.1096718261079483,97.89032817389204,55.41297735695769,42.477350816934354,0.1019881443736137,13.00145540717332,0.25297883162753676,0.13450446352401535,0.42643373353368896,0.672115847596096,0.08451432952111548,0.47116478945907136,0.9662718075026693,0.9578065634778405,0.10076255000656054,0.3833187045718498,0.9578065634778412,up
4/1/2005,25.15999985,24.54999924,24.625,25.12999916,6116800,22.19472885,wait or hold,0.2849180463142993,0.17768454916361115,32.836857187059834,17.690414702001362,22.29050241971162,74.98177066520392,68.87644283266299,68.87644283266299,-0.9646522223671792,99.03534777763282,83.22598161294239,15.80936616469043,0.10723349715068814,15.146442485058472,0.2611183103940693,0.13907715311415236,0.43495253649390575,0.7612460693030181,0.05567730094859624,0.5752118451260386,0.3648026158866715,0.9807069555526562,0.6787640779986224,0.496258662510628,0.9807069555526564,up
4/4/2005,26.25,24.68000031,25.33499908,25.03499985,8144000,22.11083221,wait or hold,0.2927441639742625,0.18198029833877655,34.71040965755989,16.78459358291822,22.551341689121887,73.00620896652441,67.87217706837171,67.87217706837171,-28.92856976530645,71.07143023469355,89.33236872873943,-18.260938494045874,0.11076386563548596,17.925816074641673,0.26789098345552786,0.1437988678654838,0.44068609051345553,0.8617364087256822,0.0016223333153193575,0.7100311368486651,-0.40361835286758374,0.4214286046938709,0.8056651869531597,0.4667483884312218,0.4214286046938711,up
4/5/2005,25.47500038,24.72500038,25.03499985,24.98500061,6049600,22.06666565,wait or hold,0.2993353234215981,0.18636044156397136,33.8644426299478,16.375517087333684,22.80674680708611,71.84391854370968,67.31585924107952,67.31585924107952,-30.119027645128313,69.88097235487169,79.99591678906597,-10.114944434194285,0.11297488185762672,17.48892554261412,0.2735949314374393,0.14861334516292768,0.44427692841106703,0.816361904897438,-0.022789348265629616,0.6888388536993137,-0.21989376602763333,0.39761944709743346,0.6116378378222398,0.4504010308468098,0.3976194470974337,up
4/6/2005,25.20499992,24.45499992,24.95000076,25.01499939,6983000,22.09316254,wait or hold,0.3052003312818563,0.19079473379452774,33.04200408325534,16.852122647494557,23.007616069156786,72.1542323064498,67.48804575989868,67.48804575989868,-29.404771107708076,70.59522889229193,70.51587716061901,0.0793517316729151,0.11440559748732856,16.189881435760785,0.2786704723973745,0.15348734086960802,0.4466005060729552,0.772249380688629,0.005652137128763224,0.6258260197791776,0.010028185478450302,0.41190457784583834,0.41462649232947135,0.45546071877385796,0.41190457784583856,up
4/7/2005,25.47999954,24.22500038,25.45000076,24.55999947,5305600,21.691316600000004,wait or hold,0.3077858102832707,0.19515883591095418,32.59849085198713,16.180571741242538,23.229493183322976,60.37900513978076,62.140786628147985,62.140786628147985,-40.23810057596271,59.76189942403729,66.74603355706692,-6.9841341330296345,0.1126269743723165,16.41791911074459,0.2809079296839454,0.15828418642534392,0.443711903437209,0.7484609915987364,-0.03442273166905585,0.6368874610847353,-0.14928153321362903,0.19523798848074558,0.33628273114893137,0.29833191068098075,0.1952379884807458,up
4/8/2005,24.51000023,23.57999992,24.45000076,23.64500046,6119800,20.88319016,wait or hold,0.30485845975779213,0.1992498584666524,31.59442856798921,17.709399165251316,23.33225735212333,43.66175708930136,53.03958952490392,53.03958952490392,-62.023787348076574,37.97621265192342,56.111113656084164,-18.134901004160746,0.10560860129113972,13.885029402737892,0.2783746189279903,0.1627808739090879,0.4323135971800689,0.6946068501700118,0.05681020072857712,0.514024382251133,-0.400775705845581,-0.24047574696153173,0.11527100957201708,0.030893917156458173,-0.2404757469615315,up
4/11/2005,24.30999947,23.42499924,23.64500046,24.28000069,3903200,21.4440155,wait or hold,0.3051373558288155,0.20319770527701347,30.721719350176883,17.704007230509834,23.406206378919794,53.978442623368046,57.67277332415163,57.67277332415163,-46.904736988666585,53.095263011333415,50.277791695764655,2.81747131556876,0.10193965055180204,13.017712119667049,0.2786159738359071,0.1671201883709852,0.42635497633081654,0.647797995389531,0.05648843647315038,0.4719533550813242,0.0717836797218141,0.06190526022666809,-0.005955341069655118,0.16703967521936902,0.06190526022666831,up
4/12/2005,24.38999939,23.58499908,24.28000069,23.69499969,4081600,20.92735481,wait or hold,0.3018390522224763,0.20687448504863634,30.20175015533319,17.26108926118218,23.486594301412623,45.101602750357834,52.53080809356548,52.53080809356548,-60.83332970634984,39.16667029365015,43.41271531896894,-4.246045025318793,0.09496456717383997,12.940660894151012,0.27576164261399816,0.17116155684413403,0.41502697544064904,0.6199087946855733,0.030057261496310828,0.46821582526907957,-0.08752672632953118,-0.21666659412699707,-0.14862330311536986,0.015943412997924344,-0.21666659412699685,up
4/13/2005,23.70000076,22.79999924,23.67499924,22.90500069,4871200,20.24670982,wait or hold,0.29412421915569453,0.21012588008676805,29.362981020280287,19.20405946026286,23.43306768003593,35.820723679195254,46.501347586201405,46.501347586201405,-79.64282630272659,20.357173697273396,37.539702334085604,-17.182528636812208,0.08399833906892648,10.158921560017426,0.2690852745404202,0.17473535952393338,0.39721708916362863,0.5749203588633176,0.14600420621982835,0.3332817781908308,-0.37929591855095535,-0.5928565260545322,-0.2706745007471161,-0.16123183129494234,-0.5928565260545318,up
4/14/2005,23.67499924,22.74500084,23.14999962,22.85000038,6256800,20.19808769,wait or hold,0.28627520680172225,0.21296296631006598,28.526902088513534,18.8256342579926,23.371698032661854,35.23185556258343,46.10458404251839,46.10458404251839,-80.95235725624006,19.04764274375994,26.190495578227782,-7.142852834467842,0.07331224049165627,9.701267830520933,0.26229278855458404,0.17785377061478336,0.3798621519340317,0.530076215472471,0.12342164369242759,0.3110823330006691,-0.15286127162630847,-0.6190471451248012,-0.5065303179040175,-0.17289069823547287,-0.6190471451248012,up
4/15/2005,23.07500076,21.74500084,23.04999924,21.80999947,7069000,19.27879143,wait or hold,0.2730100668447797,0.21519964213248857,27.387914751428603,21.076001001812745,23.156119845215077,25.85521592076411,39.27980212247096,39.27980212247096,-98.55718885417058,1.4428111458294168,13.61587586228754,-12.173064716458123,0.057810424712291114,6.311913749615858,0.25081321976373006,0.18031223473688218,0.3546861685898486,0.46898519939261085,0.257712508563547,0.14667466995838607,-0.2663125696441848,-0.9711437770834117,-0.7678523003420933,-0.37343640252412513,-0.9711437770834115,up
4/18/2005,22.40999985,21.39999962,21.85000038,22.38999939,4945000,19.79147148,wait or hold,0.2634637934381203,0.21699703811004822,26.56530780262123,21.468939946513782,22.89473949326876,36.799196476017514,44.23735058076237,44.23735058076237,-79.58763520756672,20.412364792433284,13.634272894007504,6.77809189842578,0.046466755328072096,5.096367856107449,0.24255193472461567,0.18228786011796605,0.3362632924865747,0.4248636427249015,0.28116118015023694,0.0877120903924895,0.16111143700579955,-0.5917527041513344,-0.7674699787364592,-0.22775921330981208,-0.5917527041513344,up
4/19/2005,23.44000053,22.62000084,22.64999962,23.29999924,5369000,20.59586716,wait or hold,0.2591594053178419,0.21856687883191145,28.775853615668083,20.805467987161105,22.7526694942383,50.24268112102709,50.997415224146835,50.997415224146835,-60.82475317249359,39.17524682750641,20.34347425525633,18.831772572250085,0.040592526485930425,7.970385628506978,0.2388269442842843,0.1840133659125116,0.3267231528284489,0.543429043246157,0.2415684233323161,0.22712229488077895,0.43296990945592717,-0.2164950634498718,-0.6280413645991063,-0.029115221336668884,-0.21649506344987168,up
4/20/2005,23.62000084,22.72500038,23.30999947,22.77499962,3523400,20.13179016,wait or hold,0.2519835373898047,0.21981084460805606,28.548875985707106,20.26041689220033,22.632432913277654,43.95029318062083,47.425342618597696,47.425342618597696,-71.6494867573598,28.350513242640194,29.31270828752659,-0.9621950448863963,0.03217269278174867,8.288459093506777,0.23261699325614815,0.1853806830709086,0.31304878099263855,0.5312548130416288,0.20904244367045033,0.2425511092826116,-0.013462839655114411,-0.4329897351471962,-0.44164542808480167,-0.13408030664522252,-0.43298973514719596,up
4/21/2005,23.56999969,22.79500008,22.875,23.53499985,3187600,20.8035984,wait or hold,0.24908926154978062,0.22090055471801068,27.88614765299467,19.790095317587408,22.514701261087023,53.7359104806014,52.60116321918967,52.60116321918967,-55.97938015006921,44.020619849930796,37.182126640025764,6.838493209905032,0.02818870683176994,8.096052335407261,0.23011230512521919,0.18657844860400674,0.30657852193733226,0.49570854671180786,0.18097595575430825,0.23321801964441247,0.1624737269749037,-0.11958760300138416,-0.27810553177264563,0.01801079308184672,-0.11958760300138427,up
4/22/2005,23.95499992,23.31500053,23.57999992,23.67499924,3497600,20.92735291,wait or hold,0.24682237962409914,0.2218651607920118,28.490504289405372,19.419466159312528,22.44009306999089,55.40900788851937,53.509125038557976,53.509125038557976,-44.24020429882759,55.759795701172415,42.71030959791443,13.049486103257983,0.024957218832087347,9.071038130092845,0.22815055974665022,0.18763870481150735,0.30133036977149175,0.5281239738116645,0.1588586229471689,0.2805117317138448,0.30255633626886724,0.1151959140234482,-0.16322048852918625,0.04469118297057695,0.1151959140234482,up
4/25/2005,24.68499947,23.97500038,24.20000076,24.15500069,3542400,21.35163879,wait or hold,0.24697819914646146,0.22279950661475673,29.773437436390832,18.85048292433309,22.440594431972567,61.04424311480214,56.58018938979493,56.58018938979493,-32.47546264657768,67.52453735342232,55.7683176348418,11.756219718580518,0.024178692531704737,10.922954512057743,0.22828540498248806,0.18866570016766193,0.3000659911044756,0.596935704161947,0.12490449038971452,0.37034278425093015,0.2733880321364197,0.3504907470684462,0.10814712528234893,0.134934178343872,0.3504907470684464,up
4/26/2005,24.20000076,23.77499962,24.15500069,23.875,3822800,21.10413551,wait or hold,0.24527150712613022,0.22363545010825495,29.40320972152182,19.201249575879764,22.410368748493855,56.20986312523189,54.325801837354845,54.325801837354845,-39.338224790945596,60.6617752090544,61.31536942121633,-0.6535942121619343,0.02163605701787527,10.201960145642055,0.22680844442905346,0.1895845356404937,0.2959365813464454,0.5770780757706084,0.1458365260827883,0.33536945422416564,-0.0065026626559427925,0.21323550418108783,0.22342429487058846,0.0686891693838605,0.21323550418108805,up
4/27/2005,24.39999962,23.02000046,23.95000076,23.88999939,8047600,21.11738777,wait or hold,0.2434356268591955,0.22437188401012184,28.238767890464732,20.607490983285885,22.26896633684578,56.42553297685636,54.43054777007715,54.43054777007715,-24.20091678238587,75.79908321761413,67.99513192669691,7.803951290917212,0.019063742849073667,7.631276907178847,0.2252196851785324,0.19039399417171543,0.29175897147212604,0.5146217759426974,0.22975412544153584,0.21067312165780105,0.18424864919335726,0.5159816643522823,0.36224111952055704,0.0717671207521613,0.5159816643522825,up
4/28/2005,23.97500038,23.39500046,23.69000053,23.64500046,6088200,20.90082741,wait or hold,0.2400747908218186,0.224955835674797,27.766769088143906,20.263045676724456,22.130509808773706,51.584176939040155,52.319934325129296,52.319934325129296,-31.65902762522202,68.34097237477799,68.26727693381547,0.07369544096252412,0.015118955147021607,7.50372341141945,0.22231123878361458,0.19103585035947912,0.28535237298736016,0.4893055274793432,0.2091993166549424,0.2044858742796587,0.009900613611078635,0.3668194474955597,0.36789675558569335,0.009746903145673613,0.3668194474955595,up
4/29/2005,24.20000076,23.48500061,24.04999924,23.77499962,4975400,21.01574326,wait or hold,0.2373353213466487,0.22541612840277325,27.843062407496298,19.84542957443405,22.01884443555223,54.02606727609473,53.35351867897263,53.35351867897263,-27.70167097572322,72.29832902427678,72.14612820555625,0.15220081872053015,0.011919192943875445,7.997632833062248,0.21994051910838053,0.19154178561663526,0.2801557456323256,0.49339761546626626,0.1842780331731746,0.22844397715959563,0.011671222328361042,0.4459665804855355,0.4485058814926044,0.04011870177770982,0.4459665804855357,up
5/2/2005,24.71999931,23.29999924,23.47500038,24.70499992,5359400,21.83780098,wait or hold,0.23951201837438063,0.22594016438360404,28.195219812223982,19.049135655479805,21.963433187397595,67.64558482042425,60.0289833525281,60.0289833525281,-0.45178889760678975,99.54821110239321,80.0625041671493,19.48570693524391,0.013571853990776594,9.146084156744177,0.22182421904278038,0.19211778489406584,0.28283977746334155,0.5122860200818276,0.13675911237431415,0.2841519951881937,0.44771873197884404,0.9909642220478638,0.6130216367791204,0.23627672998953253,0.9909642220478643,up
5/3/2005,24.54999924,24.10000038,24.42499924,24.26000023,5300200,21.44444466,wait or hold,0.23878966194109097,0.2264177972291896,27.71140243968448,18.72226100001118,21.909176340246177,58.04612662172737,55.90625856289156,55.90625856289156,-13.855395269630263,86.14460473036974,85.99704828567987,0.14755644468986873,0.012371864711901381,8.9891414396733,0.22119909632305168,0.19264277971121202,0.2808909147927907,0.486335867763916,0.11725283398308006,0.27653916255719313,0.011566473209512651,0.7228920946073945,0.7363515560095781,0.11513077159674023,0.7228920946073947,up
5/4/2005,24.5,23.72500038,24.38500023,24.39500046,8089400,21.56377792,wait or hold,0.23852613401697553,0.2268678197147148,27.10296955931726,19.37358407722615,21.799208498979322,60.052529491946814,56.873918670478275,56.873918670478275,-9.78912290199642,90.21087709800358,91.9678976435888,-1.7570205455852204,0.01165831430226072,7.729385482091111,0.22097104091293063,0.1931374263308563,0.2797320613085261,0.45370180620080847,0.15612060502080727,0.2154320819613602,-0.03138931807540535,0.8042175419600712,0.8604359598559974,0.1435653912023822,0.8042175419600717,up
5/5/2005,25.04999924,24.53499985,24.70000076,24.96999931,5599600,22.07203865,wait or hold,0.24107710814428174,0.22739585859637013,28.160614623370645,19.013260117868523,21.749031679154964,67.72294994458997,60.81803115443038,60.81803115443038,-2.1917791322948035,97.8082208677052,91.38790089869279,6.420319969012411,0.013681249547911611,9.147354505502122,0.22317863789819836,0.1937178254359071,0.2830174431486754,0.5104299273230648,0.13461823600971012,0.28421361609458384,0.15304225607693445,0.9561644173541037,0.848382641138794,0.25946284040356393,0.956164417354104,up
5/6/2005,25.20000076,24.70000076,25.12000084,24.86000061,5217200,21.974823,wait or hold,0.24251513108129785,0.22795764393906962,28.186908140420407,18.741515612827943,21.715244177175023,64.93997455507883,59.693321814357226,59.693321814357226,-13.178300796226432,86.82169920377356,91.61359905649407,-4.791899852720505,0.014557487142228237,9.445392527592464,0.22442309391463566,0.19433531729391418,0.2844405114778339,0.5118402131274655,0.11840185496600308,0.29867056970284556,-0.09983792517182444,0.736433984075471,0.85307303268634,0.22641334089319298,0.7364339840754712,up
5/9/2005,25.09499931,24.78499985,25.01000023,24.97999954,4281000,22.08089066,wait or hold,0.24416871408917373,0.22855992490877136,27.934110312862476,18.57342997503953,21.682160581486333,66.68251291436837,60.55040890792877,60.55040890792877,-8.888936817052135,91.11106318294786,91.91366108480884,-0.8025979018609775,0.015608789180402372,9.360680337822945,0.22585409426230751,0.19499732031669925,0.28614789614679714,0.4982810842017471,0.10837132739399435,0.2945614288993914,-0.009863288888474542,0.822221263658957,0.8593088319283804,0.25159878078426345,0.8222212636589572,up
5/10/2005,25.05999947,24.41500092,24.89500046,24.51499939,3057000,21.66984749,wait or hold,0.24284003599530024,0.22909040479468704,27.41171026205796,19.298864020154895,21.59228909122133,54.448278847535555,55.6152384888899,55.6152384888899,-28.482377393756153,71.51762260624385,83.15012833098838,-11.632505724744533,0.013749631200613205,8.112846241903064,0.22470426458625203,0.1955804024754748,0.28312849951613384,0.4702615014858429,0.1516616779970794,0.23403264297806792,-0.25412081297391187,0.4303524521248767,0.6771877178014605,0.10657916857315342,0.43035245212487694,up
5/11/2005,24.64999962,24.14999962,24.25,24.46999931,4963600,21.63007736,wait or hold,0.24103130275402052,0.22953393792364982,27.01178730635539,19.79055030177367,21.463891879465663,53.3433056717038,55.146802464851525,55.146802464851525,-33.48630043766517,66.51369956233482,76.38079511717547,-9.867095554840645,0.011497364830370699,7.22123700458172,0.22313899820120286,0.1960679162553376,0.27947066862516357,0.44881113156332897,0.18100310698201083,0.19078328408672096,-0.214303787367764,0.3302739912466963,0.5365094615059594,0.09281421117883726,0.33027399124669676,up
5/12/2005,24.33499908,22.5,24.29999924,22.73999977,10188000,20.1008625,wait or hold,0.22961214818120368,0.22953684265737567,25.513973758776388,23.337477726758387,21.109546953687325,27.92519441999771,40.88832417767312,40.88832417767312,-91.11112213168411,8.88887786831588,48.973400012298136,-40.084522143982255,7.530552382800648e-05,2.176496032018001,0.21325693356580944,0.196071109021843,0.2609204820566604,0.3684740210964388,0.3926663626910365,-0.0539223601613944,-0.8958270213237831,-0.8222224426336824,-0.03306281853611959,-0.32617010270628344,-0.8222224426336823,up
5/13/2005,22.92499924,21.20000076,22.92499924,22.49500084,8787000,19.88430023,wait or hold,0.21737792060335437,0.22908530607125507,24.30857707343969,25.795369961233337,20.73158590657449,25.887154631665936,39.3371566963917,39.3371566963917,-67.62499800000006,32.37500199999994,35.925859810216835,-3.550857810216897,-0.011707385467900705,-1.4867928877936478,0.20266950987192067,0.1955747981637097,0.24178460556454717,0.3038210562311907,0.5393413323750134,-0.2316178018232744,-0.07184748780657324,-0.3524999600000013,-0.3042128929376683,-0.3717510426758751,-0.3524999600000013,up
5/16/2005,22.44499969,21.75499916,22.36499977,22.41500092,4869400,19.81357574,wait or hold,0.20530270209292212,0.2282021973047701,23.81562884497829,25.272271390449852,20.361499047943173,25.18688849210342,38.819291136746735,38.819291136746735,-69.62499600000002,30.375003999999972,23.87962795610522,6.495376043894751,-0.022899495211847976,-1.4566425454715635,0.1922196916261243,0.19460412051943554,0.22360787243145452,0.27738115899006055,0.5081253718315726,-0.23015529681412672,0.1547350692862579,-0.39249992000000067,-0.5545540770161534,-0.38696848326262356,-0.39249992000000045,up
5/17/2005,23.06999969,22.27499962,22.27499962,23.05500031,3652000,20.37929916,wait or hold,0.1973133582951263,0.22705532544300028,25.008377557760937,24.722215275648697,19.949289172711016,40.26770366058884,45.05153346110851,45.05153346110851,-53.62501125000003,46.37498874999997,36.37499824999992,9.999990500000052,-0.02974196714787397,0.28616228211224026,0.18530576369032614,0.19334352508734853,0.2124952413728567,0.34135573396499197,0.47530071710045085,-0.14561692696480466,0.23377807352250146,-0.07250022500000075,-0.29487903234191004,-0.20383451050294987,-0.07250022500000053,up
5/18/2005,23.61000061,22.90500069,23.19000053,23.21500015,4520600,20.52072716,wait or hold,0.19050841398090768,0.22569849976482656,26.005606920306274,24.244314311967983,19.606701177682464,43.58459747744249,46.518295753364214,46.518295753364214,-49.625015250000004,50.374984749999996,42.37499249999994,7.999992250000055,-0.035190085783918884,1.761292608338291,0.1794168076275504,0.19185215686299872,0.20364713312602944,0.39484338307133426,0.44678192836894026,-0.07406266505279346,0.18867015305728962,0.007499694999999695,-0.17018894807324048,-0.16073381067539938,0.007499694999999917,up
5/19/2005,23.62999916,23.17499924,23.29999924,23.60000038,3912400,20.86104584,wait or hold,0.1860376953914411,0.22422619935045465,25.73372595099277,23.93929487943123,19.273488367699972,51.19298819235476,49.978390156869516,49.978390156869516,-40.00000950000002,59.99999049999998,52.249987999999945,7.750002500000036,-0.03818850395901355,1.7944310715615401,0.17554787584402476,0.19023386345212634,0.19877750190930676,0.3802607058743701,0.42857986263439063,-0.07245521502978136,0.18303188924374925,0.19999980999999956,0.03503025210311428,-0.05905919642613233,0.19999980999999956,up
5/20/2005,24.0,23.53499985,23.77499962,23.93000031,5763000,21.15275192,wait or hold,0.18343786029158338,0.22271217134706842,26.43149622629005,23.629018695747508,18.988586101561484,56.993059256490426,52.79733618125731,52.79733618125731,-31.750011250000032,68.24998874999997,59.54165466666661,8.708334083333362,-0.03927431105548504,2.802477530542543,0.17329799488004194,0.18856970475337187,0.19701407872296306,0.41768649079778597,0.41006409973919933,-0.023557826736003706,0.20464608057631684,0.36499977499999914,0.1865634858434153,0.023775320842753134,0.36499977499999936,up
5/23/2005,24.73500061,24.22500038,24.47500038,24.625,4221400,21.76709747,wait or hold,0.18456781722218096,0.22129640202304038,27.88476873016677,23.09968508056553,18.788519263588178,66.71264813226621,58.14683229076849,58.14683229076849,-14.375019000000044,85.62498099999996,71.29165341666659,14.333327583333372,-0.036728584800859415,4.7850836496012406,0.174275852509709,0.18701354804375958,0.20114850805030793,0.49563458645438496,0.3784760622855914,0.07261260308250894,0.33151207129172566,0.7124996199999991,0.4307484422363743,0.1809698623591609,0.7124996199999993,up
5/24/2005,24.93499947,24.43000031,24.62999916,24.90999985,2862400,22.01902008,wait or hold,0.18691772942102602,0.22002050094281536,28.050584064958223,22.772842208139686,18.613434838446697,69.96058531547502,60.14168137782394,60.14168137782394,-7.250022750000085,92.74997724999992,82.20831566666658,10.541661583333337,-0.03310277152178934,5.277741856818537,0.17630945176510093,0.18561112888330977,0.20703707078529376,0.5045283001544494,0.35897168055067574,0.09651001320661368,0.2459949122848868,0.8549995449999981,0.6576152489645801,0.23958835300103187,0.8549995449999983,up
5/25/2005,25.25,24.65500069,24.89500046,25.0,3662600,22.09856606,wait or hold,0.1893313345506371,0.2188816157786172,28.46726931129148,22.39161182812625,18.474532221157336,71.00296828997676,60.777452496878276,60.777452496878276,-6.172840664533066,93.82715933546694,90.73403919515556,3.0931201403113846,-0.02955028122798009,6.07565748316523,0.1783981704826767,0.18435931210803003,0.21280655209898391,0.5268777365837742,0.33622171875545215,0.13521456879484206,0.07800065779307963,0.8765431867093387,0.8347942829642654,0.2582704395982034,0.8765431867093385,up
5/26/2005,25.30999947,24.88500023,25.0,25.27000046,2927800,22.33723068,wait or hold,0.1927837295653383,0.21791318552913916,28.29414528230043,22.121465400699947,18.344720892385755,74.14330951408874,62.699661252220416,62.699661252220416,-0.9732122276019524,99.02678777239805,95.20130811928827,3.825479653109781,-0.025129455963800867,6.172679881600484,0.18138585144142327,0.18329485252062394,0.21998626735315896,0.5175920118926016,0.32010070315630723,0.13992084185122278,0.09451827957362458,0.9805357554479608,0.9276317283669697,0.3147543995468054,0.980535755447961,up
5/27/2005,25.5,25.11000061,25.36000061,25.45000076,2058200,22.49634361,wait or hold,0.19670317705332252,0.21712618829555974,28.522490176353294,21.874142651410754,18.23737352111122,76.15207572822872,63.96746767201236,63.96746767201236,-1.162773228769181,98.83722677123082,97.2303912930319,1.6068354781989171,-0.02042301124223722,6.64834752494254,0.1847777166766562,0.1824298168084526,0.22762984766702976,0.5298395770236064,0.3053416928769572,0.1629940893668127,0.04447902329803277,0.976744535424616,0.9697995274314823,0.3520087960004117,0.9767445354246163,up
5/31/2005,25.09000015,24.70999908,24.85000038,24.94499969,4525000,22.04994774,wait or hold,0.1973075158111861,0.21639086654546122,27.917649240535532,22.556543747435136,18.078709038897568,60.71348994430837,58.01018542178147,58.01018542178147,-12.906986234723165,87.09301376527684,94.98567610296853,-7.892662337691689,-0.019083350734275112,5.361105493100396,0.18530070764142503,0.18162158070973278,0.22980554573462064,0.4973981739169051,0.34606404785566136,0.1005537396207472,-0.16977246014133895,0.7418602753055366,0.9231505283581642,0.1769545043739713,0.7418602753055368,up
6/1/2005,25.97500038,24.56500053,25.27499962,25.79500008,3884600,22.80130196,wait or hold,0.2022430460578093,0.21586598177146965,29.298682468731517,21.662631891121283,18.014236229648528,71.90020428933762,64.07475839672752,64.07475839672752,-3.7696400905682106,96.23035990943178,94.05353348197978,2.1768264274519993,-0.013622935713660356,7.636050577610234,0.1895718845132377,0.18104464847299195,0.23867362413059268,0.5714716253096761,0.29271976669233757,0.2109046784621431,0.05733458774905098,0.9246071981886355,0.9037790194668842,0.35516152589034955,0.9246071981886357,up
6/2/2005,26.0,25.47500038,25.89999962,25.78499985,3712400,22.79246902,wait or hold,0.20648634956645395,0.2155180189207675,28.934408349898384,21.341028375430668,17.953597109349612,71.62028501993589,63.95772096140545,63.95772096140545,-4.4791705008686975,95.5208294991313,92.94806772461328,2.572761774518014,-0.009031669354313543,7.593379974467716,0.19324401271437774,0.18066218169989123,0.24613014709775927,0.5519333255178036,0.2735280441047694,0.20883485218380016,0.06626450563513919,0.9104165899826255,0.880805561043627,0.3517223896410495,0.9104165899826262,up
6/3/2005,26.13500023,25.57500076,25.92499924,25.83499908,2109800,22.83666039,wait or hold,0.2104101710957771,0.2153285409725965,28.857582123193314,21.001380103397498,17.907831550011643,72.25045634046951,64.30874563278556,64.30874563278556,-6.849339650960405,93.1506603490396,94.96728325253419,-1.81662290349459,-0.004918369876819401,7.856202019795816,0.19663966321750914,0.1804539151586082,0.2528104199515291,0.5478126543758342,0.2532594988427259,0.2215835816576024,-0.03273358846169938,0.8630132069807916,0.9227682936467563,0.36203722325321697,0.8630132069807919,up
6/6/2005,26.22999954,25.80500031,26.09499931,26.05500031,2055800,23.03112793,wait or hold,0.21496242148243283,0.2153149603962507,28.778320136104092,20.745473597752373,17.87267206076803,75.08990823072688,65.88323494749602,65.88323494749602,-4.4247593815375055,95.5752406184625,94.74891015554442,0.8263304629180794,-0.00035253891381786806,8.03284653835172,0.2005791521061624,0.1804389879351953,0.2602256341375917,0.5435613381670148,0.23798825202768836,0.23015209111154822,0.026875528818981698,0.9115048123692497,0.9182301293200714,0.40830347354702434,0.9115048123692497,up
6/7/2005,26.24500084,25.37000084,26.125,25.45999908,3653400,22.50518036,wait or hold,0.2156317810344035,0.21532671165495199,28.05940885618639,21.469142045125782,17.777532968146136,56.7631802781467,58.381976361456495,58.381976361456495,-23.50304565106084,76.49695434893916,88.4076184388137,-11.910664089874544,0.0003050693794515169,6.590266811060609,0.20115841165770898,0.1804519044462145,0.26129363389155524,0.5050016289134864,0.2811732404055127,0.16017676364361577,-0.2603943911688017,0.529939086978783,0.7864473032729686,0.18787955322077,0.529939086978783,up
6/8/2005,26.56500053,25.44000053,25.45999908,26.22999954,5831600,23.1858139,wait or hold,0.22017063136779313,0.21550636873446546,28.071636717678512,20.78728173836834,17.717770961818246,68.40540666556096,64.08146215228896,64.08146215228896,-9.882031342825755,90.11796865717425,87.39672120819192,2.721247448982325,0.0046642626333276704,7.284354979310173,0.2050863042244413,0.1806493762835888,0.2683732546479667,0.5056574856194525,0.24048315708144896,0.1938449526151078,0.06961344856244378,0.8023593731434846,0.7654391396612794,0.35535851524417783,0.8023593731434848,up
6/9/2005,27.07999992,26.26499939,26.35000038,27.07500076,4287400,23.93275642,wait or hold,0.22870192246049115,0.2159957556657126,28.84945750076447,20.290033267697332,17.711538780108167,76.50510643171098,69.08497341560562,69.08497341560562,-0.14102002542406167,99.85897997457594,88.8246343268964,11.034345647679544,0.01270616679477854,8.559424233067137,0.21246922994488715,0.18118729071903528,0.2814338436851367,0.5473768800495684,0.21080980389773885,0.2556948364641485,0.2571068988023779,0.9971795994915187,0.7951136026159065,0.5023863180330863,0.9971795994915189,up
6/10/2005,27.21500015,26.83499908,27.125,27.08499908,2781400,23.94158745,wait or hold,0.23635132603942566,0.21675065008263483,28.921590993474773,20.070828431544,17.718914546867556,76.58796012883103,69.13975190168516,69.13975190168516,-4.347862207360713,95.6521377926393,95.20969547479645,0.44244231784284693,0.019600675956790825,8.850762561930772,0.21908897575069197,0.1820170403060657,0.2926309866714565,0.5512458505109434,0.19772873295150206,0.26982680752995214,0.01821732328525605,0.9130427558527856,0.9278060318781949,0.5039959797335458,0.9130427558527856,up
6/13/2005,27.39999962,26.80500031,26.97500038,27.37000084,2613600,24.19351387,wait or hold,0.24467885592985184,0.21778632860976718,28.95845665355459,19.729974028892823,17.74464880881123,79.04541106267135,70.73174932353744,70.73174932353744,-1.0100601673203649,98.98993983267962,98.16701919996491,0.8229206327147125,0.026892527320084653,9.228482624661769,0.2262955678066625,0.18315541649606049,0.3044734399094129,0.5532231864824695,0.17738821172185948,0.28814890410512173,0.026798623576882896,0.9797987966535922,0.9892642481924838,0.5507767044411369,0.9797987966535928,up
6/14/2005,27.73500061,27.21500015,27.37000084,27.70499992,3169600,24.48963737,wait or hold,0.2538977665404829,0.21912540851830023,29.48799531699557,19.43537776083866,17.80304526687574,81.68212785840998,72.52585448941417,72.52585448941417,-0.9463939824254317,99.05360601757457,97.89856121429779,1.1550448032767804,0.034772358022182676,10.05261755615691,0.2342735551384949,0.18462727928401956,0.31727081083257125,0.5816256576512673,0.15980814939049037,0.3281252815753819,0.034289345466408605,0.9810721203514909,0.9836852347033573,0.6034963500318282,0.9810721203514914,up
6/15/2005,28.14999962,27.70999908,28.0,27.79500008,3338800,24.56918526,wait or hold,0.2625882073446171,0.22073701842423157,30.30945758542935,19.185019263210844,17.900401003629835,82.37716278060176,73.00462224149311,73.00462224149311,-9.90236067256569,90.09763932743431,96.04706172589613,-5.94942239846182,0.0418511889203855,11.124438322218506,0.24179420801948392,0.18639869608605752,0.32876730461923276,0.6256858179497347,0.14486798051952698,0.380116175162198,-0.12594466548021654,0.801952786548686,0.9452079266239037,0.6175649044788689,0.8019527865486862,up
6/16/2005,28.17499924,27.81500053,28.02499962,28.02000046,2695200,24.76808167,wait or hold,0.2715167389398232,0.2226198600598912,30.04582893205821,18.97188846520288,17.9981366036342,84.13310532582173,74.21439200506471,74.21439200506471,-4.29359654812729,95.70640345187272,94.95254959896049,0.7538538529122292,0.04889687887993199,11.07394046685533,0.24952090317544728,0.18846823989855732,0.34020997530984554,0.6115457640809818,0.13214937841888696,0.37766667174923807,0.025240892808809035,0.914128069037454,0.9224621032690421,0.6531138981470646,0.9141280690374542,up
6/17/2005,28.22500038,27.59000015,28.14999962,28.07500076,5816400,24.81669426,wait or hold,0.2797220078541933,0.2247370405085415,29.48678489625623,19.278172313923164,18.059307107809378,84.57152110742567,74.51504372973486,74.51504372973486,-4.098350441189199,95.9016495588108,93.90189744603923,1.9997521127715743,0.05498496734565181,10.208612582333064,0.25662169135074797,0.1907953595109908,0.3500974372686507,0.5815607352149568,0.15042689831810097,0.33569214449015683,0.05334085720301851,0.9180329911762157,0.900627764763666,0.6619485265023619,0.918032991176216,up
6/20/2005,28.86499977,28.32999992,28.57500076,28.66500092,4439200,25.33822441,wait or hold,0.29017884613808675,0.227163333915003,30.67675472536519,18.832950697895736,18.18145042681857,88.53585191950948,77.54029913513384,77.54029913513384,-4.651136868573027,95.34886313142698,95.65230538070345,-0.3034422492764719,0.06301551222308374,11.843804027469453,0.2656709735147076,0.19346224365650344,0.3631395780705087,0.6453862612745351,0.12385825298958664,0.41501050359467917,0.0013946577005001792,0.9069772626285393,0.9370042184374057,0.7508454294417273,0.9069772626285393,up
6/21/2005,28.71999931,28.14999962,28.5,28.25,4899200,24.97138405,wait or hold,0.29719776330080094,0.2297598014508469,30.163441183015365,19.046230381249902,18.27332679194335,73.11826590728583,71.14306375678305,71.14306375678305,-17.596565329992835,82.40343467000716,91.21798245341495,-8.81454778340779,0.06743796184995404,11.117210801765463,0.27174510033645394,0.19631617636193766,0.3703219313980963,0.6178540448497578,0.1365857398384407,0.37976558926325943,-0.1905646460162007,0.648068693400143,0.8448514468779837,0.5628631481789252,0.6480686934001432,up
6/22/2005,28.83499908,28.28499985,28.5,28.42499924,7096400,25.12606812,wait or hold,0.30425570646640665,0.23252157192038048,29.982367216883034,18.71794212192275,18.37450934656953,75.23950861074252,72.18517244456086,72.18517244456086,-12.589432466578819,87.41056753342119,88.38762177828507,-0.9770542448638793,0.07173413454602617,11.264425094960284,0.27785300001595226,0.19935180340487046,0.3772992025629376,0.6081419152970748,0.11699510449282657,0.3869065244777117,-0.013797973753737147,0.7482113506684236,0.786031738660318,0.5934854337235851,0.7482113506684238,up
6/23/2005,28.95999908,28.25,28.5,28.36000061,4413800,25.06862068,wait or hold,0.31002363419841217,0.23539468630343727,29.723476316032958,18.326407969256017,18.485857944054903,72.75184351129894,71.15730989781024,71.15730989781024,-16.713057497209224,83.28694250279077,84.36698156873966,-1.0800390659488954,0.0746289478949749,11.39706834677694,0.28284452844272745,0.20250981520015188,0.382000572627899,0.5942559767341054,0.09363026401400787,0.3933406610503303,-0.016120691345428484,0.665738850055815,0.7024759974956967,0.5632817699633519,0.6657388500558157,up
6/24/2005,28.67499924,27.79999924,28.45000076,27.95000076,4817000,24.70619583,wait or hold,0.31269470206295935,0.23826021189583596,28.961013013593046,19.17554320586579,18.52424761759956,58.514321174639925,64.88146938544085,64.88146938544085,-28.133671731270752,71.86632826872925,80.85461276831369,-8.988284499584438,0.07443449016712339,9.785469807727257,0.28515605379380826,0.2056594857019043,0.3816847603006712,0.5533603000632183,0.14430249583133992,0.3151667248834831,-0.19448310043244,0.4373265653745848,0.6294830005927816,0.37886666772260114,0.43732656537458503,up
6/27/2005,28.64999962,28.00499916,28.00499916,28.37000084,5071200,25.07746124,wait or hold,0.31704579410722644,0.24118071090826831,28.36650483759945,18.781909971777775,18.561837506278703,66.37800964255459,67.9954405665263,67.9954405665263,-16.761320540884878,83.23867945911512,79.46398341021167,3.7746960489034507,0.07586508319895813,9.584594865821675,0.2889214615165787,0.20886958077634987,0.3840081388554415,0.5214731075047949,0.12081239245469666,0.30542286839220956,0.09337290718168556,0.6647735891823021,0.6005833575892527,0.4703704770693775,0.6647735891823023,up
6/28/2005,28.36000061,27.80999947,28.34499931,28.0,4123000,24.75039482,wait or hold,0.31861249870207686,0.24405093457480775,27.898595662001245,19.046481592626225,18.56797256169251,55.55493049786888,62.7192874716403,62.7192874716403,-35.62149129597857,64.37850870402143,73.16117214395521,-8.782663439933785,0.07456156412726911,8.85211406937502,0.29027727783136403,0.21202441521227722,0.38189113689226817,0.4963762113061565,0.1366007309029349,0.2698923652070757,-0.18984552717221626,0.2875701740804284,0.4696002207439076,0.3153311145308437,0.2875701740804286,up
6/29/2005,28.32500076,27.89999962,27.95000076,28.23500061,3582200,24.95812416,wait or hold,0.32091681334694755,0.24690009369429286,27.546415240629507,18.80604662614236,18.573979803451863,60.34594299970683,64.59823016160739,64.59823016160739,-33.64263961969684,66.35736038030316,71.32484951447985,-4.967489134176688,0.07401671965265469,8.740368614487146,0.2922714172499776,0.2151560963451371,0.3810062731051289,0.4774865721639887,0.12225274976472922,0.2644719197017755,-0.10379816230826655,0.3271472076060631,0.4314383136031221,0.37054370439698925,0.3271472076060633,up
6/30/2005,28.96999931,27.95499992,27.97500038,28.39999962,4697000,25.10398293,wait or hold,0.3235175258128393,0.24973995969228308,28.62173548675633,18.2443142245777,18.648328695330132,63.563317947870225,65.89782633381657,65.89782633381657,-26.327942414754002,73.672057585246,68.13597555652348,5.536082028722518,0.07377756612055625,10.377421262178629,0.294522057481015,0.21827756285254774,0.38061787180901563,0.5351627238719285,0.08873131143055235,0.3438805603039601,0.1330991712852756,0.47344115170491974,0.36516808967086667,0.4087322403384741,0.47344115170491996,up
7/1/2005,29.36000061,28.76000023,28.84000015,29.23999977,4037800,25.84648132,wait or hold,0.3300961378619647,0.2527183194345726,28.95834853829585,17.7326845400903,18.760706031353916,75.41222135024827,71.61142521349073,71.61142521349073,-5.594443555503924,94.40555644449609,78.14499147001503,16.260564974481056,0.07737781842739205,11.225663998205551,0.3002151470233345,0.22155125611453808,0.38646492181927394,0.5532173875848039,0.058199757846128186,0.3850263369309741,0.3749789448039762,0.8881111288899215,0.573172461958342,0.5766259144178278,0.8881111288899215,up
7/5/2005,30.02499962,29.39999962,29.5,29.97500038,4493400,26.49617767,wait or hold,0.33977708445446453,0.255945018513578,30.23419712830301,17.32690471562364,18.93524002359364,81.54024459242709,75.48223309799548,75.48223309799548,-2.0533573257820166,97.94664267421798,88.67475223465328,9.2718904395647,0.08383206594088655,12.907292412679368,0.30859297739149594,0.22509791398914758,0.39694705050740287,0.621649128825297,0.03398480545024696,0.4665972177329327,0.21735651934522449,0.9589328534843593,0.7919987978455254,0.6903693134682516,0.9589328534843597,up
7/6/2005,30.35000038,29.43000031,30.03499985,29.50499916,3570200,26.08073235,wait or hold,0.34570209121196527,0.25927163831196776,30.36994358194108,16.864988014703034,19.13640240756565,68.75613115134337,69.0030223059573,69.0030223059573,-30.615983680552105,69.3840163194479,87.2454051460539,-17.861388826606003,0.08643045289999751,13.504955567238046,0.3137204410202086,0.22875440070046094,0.4011670043331603,0.6289300603264425,0.006419879228603431,0.4955881110364828,-0.39460691767218825,0.38768032638895766,0.762294534557834,0.49997819082928796,0.3876803263889579,up
7/7/2005,30.18499947,29.14999962,29.35000038,30.17499924,4500400,26.672966,wait or hold,0.354399637430145,0.2627972282636993,29.467375561302724,17.167773034493276,19.287187854531076,75.21799384212792,72.6121031138113,72.6121031138113,-6.340620486107811,93.65937951389219,86.99667950251927,6.66270001137292,0.09160240916644574,12.299602526809448,0.32124724288187845,0.23262958740327755,0.4095666064619814,0.580519691161931,0.024488606154697834,0.437119956990784,0.15850889069681595,0.8731875902778437,0.7571255926955796,0.6060307593838459,0.8731875902778439,up
7/8/2005,30.69499969,29.70499992,30.29999924,30.22999954,4345400,26.72159195,wait or hold,0.3622766845791361,0.26648399958223773,30.08940480442969,16.6834230334294,19.48249438557567,75.69932964516623,72.89114113219236,72.89114113219236,-16.062178850438446,83.93782114956156,82.3270723276338,1.610748821927757,0.09579268499689836,13.405981771000292,0.32806399000321695,0.23668193818301297,0.4163718940499963,0.6138830107149553,-0.0044150295401576,0.4907871813745317,0.044567284774098326,0.6787564229912308,0.6600832143402917,0.6142302706026821,0.6787564229912311,up
7/11/2005,30.34499931,29.74500084,29.89999962,30.21500015,3566000,26.70832825,wait or hold,0.36899764902949883,0.27028313037706625,29.572989622486183,16.397090585272082,19.673732030556835,75.23440398145448,72.67368328250573,72.67368328250573,-16.580292414116816,83.41970758588319,87.00563608311224,-3.585928497229048,0.09871451865243258,13.175899037214101,0.33388027041934976,0.24085778998085194,0.42111714689606083,0.5861844339557631,-0.02150194757665358,0.4796265402419695,-0.07263847137888613,0.6683941517176635,0.7573117256721063,0.6078402880172464,0.6683941517176637,up
7/12/2005,30.875,30.25,30.375,30.67499924,4407400,27.11494637,wait or hold,0.3772481395398941,0.27424713741850093,30.532600019307406,16.086923664353954,19.909411016472607,79.69610959153748,75.12465094862132,75.12465094862132,-6.504088148583146,93.49591185141685,86.95114686228713,6.5447649891297175,0.10300100212139318,14.445676354953452,0.34102019307978115,0.24521486711890494,0.42807868210945954,0.6376543425964025,-0.04001119020516819,0.5412197277374107,0.1558489865676953,0.8699182370283367,0.7561793469975073,0.6798617888575911,0.8699182370283369,up
7/13/2005,30.875,30.10000038,30.875,30.37999916,2578200,26.87169456,wait or hold,0.38275554000475864,0.27826825297507735,29.85534564540772,16.159409563899864,20.11471967770331,70.22970768880162,70.74250570927661,70.74250570927661,-16.097584314092956,83.90241568590704,86.93934504106896,-3.0369293551619165,0.1044872870296813,13.695936081507856,0.3457862628461319,0.24963471564033646,0.43049250798820493,0.6013289538067847,-0.03568558675954636,0.5048520177538738,-0.06025635572661803,0.6780483137181406,0.755934085082095,0.55109278002845,0.6780483137181408,up
7/14/2005,30.70000076,29.38999939,30.54999924,29.56500053,4598800,26.15082741,wait or hold,0.38285389511059975,0.28214391682643836,28.754302086073665,17.562263424926076,20.199084352072386,50.78618529401375,60.280795137270815,60.280795137270815,-42.60159825131231,57.39840174868769,78.26557642867044,-20.867174679982753,0.1007099782841614,11.192038661147588,0.34587137873688767,0.25389468949634453,0.42435790650560734,0.5422730998935577,0.048029860423606685,0.3833952700808465,-0.4623993515953566,0.14796803497375355,0.575678422469267,0.24367620037716042,0.14796803497375377,up
7/15/2005,29.95000076,29.06999969,29.61000061,29.34000015,4797000,25.9518013,wait or hold,0.38118123162460193,0.28581390007661156,28.04474279929186,18.026216024799528,20.2313088704202,46.62826198858761,57.74201409288525,57.74201409288525,-50.081552514446024,49.918447485553976,63.73975497338282,-13.821307487828847,0.09536733154799037,10.018526774492333,0.34442386626330745,0.2579285875064199,0.41568109166287504,0.5042149965354086,0.07571627912282919,0.3264716373673795,-0.3034870040909905,-0.0016310502889206324,0.2738071496207215,0.1690743100097325,-0.0016310502889205214,up
7/18/2005,29.29500008,28.75,29.29500008,29.06500053,2991400,25.70855904,wait or hold,0.377594122482904,0.2892148939364372,27.578756825861195,18.62789103026242,20.21339370609515,41.75384189280538,54.70923721778025,54.70923721778025,-59.05380610162575,40.94619389837425,49.42101437753856,-8.474820479164315,0.08837922854646685,8.950865795598776,0.3413196045452944,0.26166682319531054,0.4043319460351751,0.47922125370003976,0.11162129641693674,0.2746825229015186,-0.1829024432019355,-0.18107612203251522,-0.023760630801240357,0.07995638924779791,-0.1810761220325151,up
7/19/2005,30.07500076,28.59000015,28.59000015,30.07500076,2710200,26.60193062,wait or hold,0.37930326963919114,0.2925531321925882,28.600602487938083,17.864865577891546,20.273630594927354,59.772800726550244,62.49961205528087,62.49961205528087,-26.890727321520476,73.10927267847953,54.65797135413584,18.45130132434369,0.08675013744660293,10.735736910046537,0.3427986897579627,0.26533608044819035,0.4016861933710949,0.534029228943069,0.06608767475328903,0.36126140541227447,0.4243887685524981,0.4621854535695904,0.08507224128414692,0.3088759689152314,0.4621854535695906,up
7/20/2005,30.49500084,29.61499977,30.25,30.34000015,3321200,26.83631706,wait or hold,0.38182287621612687,0.2958609760150783,29.063280322320033,17.432709935334458,20.37239113089334,63.25263676679575,64.23774007095847,64.23774007095847,-18.321912169262617,81.67808783073738,65.24451813586364,16.43356969487374,0.08596190020104855,11.630570386985575,0.3449791414621819,0.26897192936182024,0.40040604348105724,0.5588455355864457,0.04029874272374423,0.4046671627465046,0.37888088980196777,0.6335617566147473,0.30507868717829867,0.35995073015030954,0.6335617566147476,up
7/21/2005,30.55999947,29.71999931,30.32500076,30.11499977,3541200,26.637302399999996,wait or hold,0.38239535705383076,0.29906740646303104,28.571972681087193,17.031083526490175,20.475201134373176,58.26037417152369,61.62598218941371,61.62598218941371,-33.26040612212731,66.7395938778727,73.84231812902978,-7.102724251157085,0.08332795059079973,11.540889154597018,0.34547456278296695,0.27249630877222497,0.3961283335365673,0.5324936333014463,0.01633164582858515,0.40031698820474726,-0.1519562123621998,0.33479187755745365,0.48375559268917456,0.28320442090235165,0.3347918775574539,up
7/22/2005,31.76499939,30.12000084,30.375,31.76499939,4257800,28.09675598,wait or hold,0.3914756246458033,0.3024914275802755,30.535950383822062,16.278723754305872,20.683105494550784,75.08457557958604,70.95277915672642,70.95277915672642,-0.0,100.00000000000001,82.80589390286994,17.194106097130074,0.08898419706552785,14.25722662951619,0.353332569317369,0.2762598550964914,0.4053144552828922,0.6378340436042838,-0.028565500282521472,0.5320785821915233,0.39603401258288873,1.0,0.6700339409707134,0.5572716494935905,1.0,up
7/25/2005,32.47499847,31.35499954,31.625,32.15000153,4514200,28.43730164,wait or hold,0.40147161661770525,0.3061589019998837,31.512257855616227,15.795018754698335,20.944368383955926,77.54814203661132,72.62470873629557,72.62470873629557,-8.365433218514374,91.63456678148562,86.12472021978601,5.509846561699604,0.09531271461782154,15.717239100917892,0.3619830379778384,0.28029099550089565,0.4155923901234031,0.6901995208280376,-0.05743064544970944,0.6028995211391721,0.13250745708760703,0.8326913356297121,0.7390047959226729,0.6064011746540656,0.8326913356297125,up
7/26/2005,32.69499969,32.00500107,32.48500061,32.67499924,4314400,28.90167999,wait or hold,0.4130730318137523,0.3101202879454374,31.519085648354565,15.50514424464102,21.217499450253857,80.59984492893699,74.75829873167272,74.75829873167272,-0.4872217354744168,99.51277826452558,97.049115015337,2.463663249188585,0.10295274386831493,16.013941403713545,0.372022829811665,0.28464519163575663,0.4280003074859309,0.6905657380653911,-0.0747289363912148,0.6172916829073138,0.0638038996803929,0.9902555652905114,0.9660322980976062,0.6690965564697471,0.9902555652905116,up
7/27/2005,32.93999863,31.83499908,32.65000153,31.89500046,6249000,28.21175003,wait or hold,0.41896658096041506,0.3141532039866578,31.246698810998698,15.053309997604227,21.504112278148273,65.23139881254475,66.46942816723396,66.46942816723396,-24.022954831009514,75.97704516899049,89.04146340500047,-13.064418236009985,0.10481337697375726,16.19338881339447,0.37712307022156644,0.28907801077538386,0.4310220998190979,0.6759559280007434,-0.10169219114939632,0.62599615241991,-0.28641613906797414,0.5195409033798095,0.799619679604346,0.4255287172952906,0.5195409033798097,up
7/28/2005,31.85499954,29.51000023,31.10499954,30.42499924,10402800,26.91149712,wait or hold,0.4157639037601655,0.317917976236108,29.360708042452195,20.02868146229041,21.44975161463022,45.96209169135862,54.259337468394925,54.259337468394925,-57.81609813344123,42.18390186655877,72.5579084333582,-30.374006566799423,0.09784592752405746,9.332026580161784,0.3743514934907892,0.2932160970417794,0.419706496937881,0.5747984448432719,0.19521360826424639,0.2931715188392441,-0.6768162475234738,-0.1563219626688247,0.4570633749110016,0.06673611889238407,-0.1563219626688246,up
7/29/2005,30.70000076,30.36000061,30.52499962,30.54999924,3810200,27.02206802,wait or hold,0.4129106042262016,0.3214374937424668,29.104945888708066,19.854210918186233,21.39652346493546,47.50061035487577,55.01605104557902,55.01605104557902,-54.94253391095442,45.05746608904558,54.406137708198195,-9.348671619152611,0.09147311048373485,9.250734970521833,0.3718822659977232,0.2970846091568293,0.4093566167724709,0.5610803205601771,0.18480206075687833,0.2892283003832128,-0.2026112643076674,-0.09885067821908844,0.07983870984640395,0.08897209054085464,-0.09885067821908833,up
8/1/2005,31.52499962,30.57500076,31.52499962,30.61000061,3140200,27.07514763,wait or hold,0.41002739752818584,0.32471974362598693,30.485875981509214,19.360297485092698,21.41575890561958,48.324533285513674,55.397489275838005,55.397489275838005,-53.563191589896824,46.436808410103176,44.55939212190242,1.877416288200756,0.08530765390219891,11.125578496416516,0.36938715703275515,0.3006923262419352,0.3993435038303952,0.635148240156536,0.15532772628062386,0.3801714816810453,0.05058169746636043,-0.0712638317979366,-0.1247934090806041,0.10018062429710595,-0.0712638317979365,up
8/2/2005,31.34499931,30.61000061,30.82500076,31.32500076,3888600,27.70756912,wait or hold,0.4107255155334535,0.32790621051156593,29.9129705812197,18.99646936392772,21.434593607956113,57.57993758538185,59.77468298274855,59.77468298274855,-37.12640078899516,62.87359921100484,51.455957903384444,11.417641307620393,0.08281930502188756,10.91650121729198,0.3699913039691325,0.30419476250736,0.3953022591880335,0.6044197396001549,0.1336162460564101,0.37002975377785585,0.26575174143825175,0.25747198422009654,0.01852895634623164,0.22880413271744993,0.25747198422009676,up
8/3/2005,31.47999954,30.79000092,31.36000061,31.0,2706400,27.42009926,wait or hold,0.40901808461640954,0.33091132384165295,29.729833141774538,18.660262164466467,21.46461656933124,52.58533786193271,57.03475608732067,57.03475608732067,-44.59768523873139,55.40231476126861,54.90424079412545,0.49807396714316354,0.07810676077475659,11.069570977308071,0.3685137039791242,0.30749786223723374,0.3876487728375879,0.5945969330651824,0.11355304715092651,0.3774547205786005,0.019472038389125368,0.10804629522537201,0.09019013905964934,0.148291586619979,0.10804629522537224,up
8/4/2005,31.68000031,30.90999985,31.07500076,31.19499969,3720400,27.5925808,wait or hold,0.4079455286463727,0.3337653295016599,29.65557553563563,18.29131415776612,21.5112239264125,55.29951429430045,58.270695186384415,58.270695186384415,-40.114932178091244,59.885067821908756,59.38699393139398,0.4980738905147746,0.0741801991447128,11.36426137786951,0.3675855207801497,0.31063487049254435,0.381271774710086,0.5906140331127612,0.0915360372353975,0.3917492908479785,0.01947203666085029,0.19770135643817488,0.1833493727441906,0.18460956424671293,0.1977013564381751,up
8/5/2005,31.47999954,30.59000015,31.43000031,30.97500038,2724400,27.39798737,wait or hold,0.405178355498343,0.33641104816979467,28.979218213093777,18.694172470695047,21.512531255942765,51.4248619870405,56.302887996571094,56.302887996571094,-45.17238934759349,54.82761065240651,56.70499774519454,-1.8773870927880267,0.06876730732854835,10.28504574239873,0.36519082652044954,0.3135429380620911,0.3724808771696173,0.554336758799171,0.11557664813240498,0.33939969375334167,-0.034104062769755084,0.09655221304813,0.1276129309191909,0.126785697724888,0.09655221304813022,up
8/8/2005,31.67000008,30.95499992,31.22999954,31.04999924,3572200,27.46432686,wait or hold,0.40246820788949833,0.3388583149043984,28.93502826369381,18.35078511572871,21.53067745630634,52.74181001743215,56.83800880880453,56.83800880880453,-55.10204873564957,44.89795126435043,53.20354324622182,-8.305591981871387,0.06360989298509995,10.5842431479651,0.36284548180414156,0.31623287524651156,0.3641048920942076,0.5519665753726626,0.09508497271511063,0.35391288566639956,-0.17908566706408802,-0.10204097471299145,0.05484675176163267,0.14251018261335524,-0.10204097471299134,up
8/9/2005,31.29999924,30.68000031,31.12000084,30.875,2626400,27.30953979,wait or hold,0.39843819005982084,0.3410655894894425,28.471877546437717,18.76702118376986,21.510125954199918,49.11677094806972,55.141167424138146,55.141167424138146,-60.204069774493156,39.795930225506844,46.507164047421185,-6.711233821914341,0.05737260057037835,9.704856362667858,0.3593579296897791,0.31865902271077573,0.3539751129650519,0.5271249050625204,0.11992390251235419,0.3112564022097115,-0.1431265450636543,-0.20408139548986326,-0.08431539603432792,0.0926486259305761,-0.20408139548986315,up
8/10/2005,31.86000061,31.125,31.35000038,31.57500076,4457200,27.92869949,wait or hold,0.39800819878999505,0.3431751387592131,29.190300648031968,18.29196206267213,21.54017419534331,61.473991892307055,60.25276178873696,60.25276178873696,-39.79587483189487,60.204125168105136,48.299335552654064,11.904789615451072,0.05483306003078192,10.898338585359838,0.3589858179459562,0.32097775443825216,0.34985072965172015,0.5656584302586525,0.09157470102672005,0.36914873757259015,0.27673887461418767,0.20408250336210254,-0.04707102433990584,0.2428524425353491,0.20408250336210254,up
8/11/2005,32.06000137,31.56500053,31.57500076,32.04999924,3341600,28.34885406,wait or hold,0.3996770097275899,0.3452683393006877,29.3341185736406,18.057366632186987,21.587147448630848,67.6865441303764,63.30808517272912,63.30808517272912,-25.947516185430295,74.05248381456971,58.01751306939382,16.03497074517589,0.05440867042690223,11.276751941453611,0.36042999644834905,0.32327851630100546,0.34916149261324736,0.5733722852944909,0.07757519479460151,0.38750446378304004,0.3698908970754804,0.48104967629139406,0.15488923145536693,0.3326328907680507,0.4810496762913943,up
8/12/2005,32.22000122,31.73500061,32.02999878,31.84499931,2937000,28.16752052,wait or hold,0.399544383859471,0.3472790614383686,29.38043635636075,17.828566947770693,21.647199211406356,62.60351019424917,61.12429811508063,61.12429811508063,-31.924193317407955,68.07580668259205,67.44413855508888,0.6316681275031613,0.05226532242110238,11.551869408590058,0.36031522285519735,0.3254886212189565,0.345680552414833,0.5758565977331018,0.06392155030004032,0.4008496082425228,0.02248511840563827,0.36151613365184065,0.35079054022420464,0.2684624720465223,0.3615161336518409,up
8/15/2005,32.29999924,31.32999992,32.29999924,31.48999977,2682400,27.85351753,wait or hold,0.39691595000557456,0.34911790351442845,28.63923710067708,18.432115951767873,21.64797337220196,54.35655788968255,57.4298661371105,57.4298661371105,-42.27403896165076,57.72596103834923,66.61808384517026,-8.892122806821028,0.04779804649114611,10.207121148909206,0.3580405927091188,0.3275098024848684,0.3384253981795362,0.5361014449117889,0.09993839864774334,0.3356197994126149,-0.19231427154022873,0.15451922076698454,0.3336237185409532,0.15990186576660936,0.15451922076698477,up
8/16/2005,31.59000015,30.54999924,31.25,30.59499931,3429800,27.061876300000005,wait or hold,0.3890034500039192,0.3505954855078174,27.86938070848578,19.952727230242765,21.541856843878232,39.17677051256616,49.33404880945507,49.33404880945507,-61.111130286745166,38.888869713254834,54.896879144731976,-16.00800943147714,0.03840796449610184,7.916653478243017,0.3511931649117894,0.32913390119501185,0.32317527836954385,0.49480923058839577,0.19068103172297346,0.22451590527253362,-0.3528058359225741,-0.22222260573490338,0.09003715146583136,-0.07799311854017865,-0.22222260573490327,up
8/17/2005,31.20000076,29.58499908,30.59499931,29.875,5658600,26.42502403,wait or hold,0.37716749092115265,0.3515798516745108,26.729846471300878,21.580066631097765,21.315149039339296,31.040905503771683,43.96471214818756,43.96471214818756,-89.31856711198128,10.681432888018717,35.76542121320754,-25.08398832518882,0.02558763924664187,5.149779840203113,0.3409504002717343,0.3302158769018009,0.30235421459603073,0.4336888808349173,0.2877926763825842,0.09030294967541064,-0.5575052820753335,-0.7863713422396257,-0.30754707982977014,-0.23577067318023814,-0.7863713422396257,up
8/18/2005,30.30999947,29.375,29.73999977,30.02499962,4373000,26.55769539,wait or hold,0.36650298268979853,0.35213267802798015,26.098883668417532,21.600833068781082,21.0675403399752,34.354395194092476,45.30038742873202,45.30038742873202,-77.77778499525355,22.222215004746445,23.93083920200661,-1.7086241972601641,0.014370304661818378,4.49805059963645,0.3317214018397665,0.330823521399108,0.2841365146379673,0.3998463985862617,0.28903191566855546,0.05868946851640633,-0.030297787804789644,-0.5555556999050711,-0.5534898202350826,-0.19652195534928485,-0.555555699905071,up
8/19/2005,30.67499924,30.42000008,30.45000076,30.54000092,2866000,27.01323128,wait or hold,0.35894966645862425,0.35238521089820646,26.594277354607865,21.244788131641638,20.861597023019808,44.949807709613715,49.73079938317453,49.73079938317453,-60.17089836919064,39.82910163080936,24.24424984119145,15.584851789617911,0.006564455560417792,5.349489222966227,0.3251848094211196,0.3311010953751299,0.27145929477152686,0.4264174610235065,0.26778489774459135,0.099990268298354,0.35973892316890654,-0.2034179673838129,-0.546976614158151,-0.06633463272105333,-0.2034179673838128,up
8/22/2005,30.98999977,30.39999962,30.75,30.70499992,2712200,27.15917397,wait or hold,0.3523626578161121,0.3523843754337898,26.997546453011456,20.92505813297959,20.69096893574847,48.082010408785145,51.09742408406441,51.09742408406441,-54.52990545050536,45.47009454949464,35.84047039501676,9.629624154477881,-2.171761767771896e-05,6.072488320031866,0.3194844535196282,0.3311001770662392,0.2607629099999855,0.4480473055116261,0.24870497747671516,0.13506084195128465,0.22542483838501792,-0.09059810901010734,-0.30598743020109154,-0.02617646849705646,-0.09059810901010723,up
8/23/2005,31.02499962,29.92499924,30.93000031,30.5,3677600,26.97784042,wait or hold,0.3446421148704957,0.35209757047152224,26.24545747969674,21.54508034891128,20.46481066427202,44.418681982030485,49.30398602662924,49.30398602662924,-61.53845154503354,38.46154845496646,41.25358154509011,-2.7920330901236454,-0.007455455601026562,4.7003771307854585,0.31280314415277455,0.33078493258480557,0.24869002342221225,0.40770806901067735,0.28570486642611814,0.06850373736045046,-0.054732970270868875,-0.2307690309006709,-0.19349377481828545,-0.07887651115628158,-0.2307690309006708,up
8/24/2005,31.19000053,30.35000038,30.5,30.84499931,3129200,27.28299713,wait or hold,0.33891156136590084,0.3516091102657074,26.105063460636135,21.08695047725197,20.259989492808916,51.65121068656662,52.335972956812896,52.335972956812896,-49.743600275260256,50.256399724739744,44.72934757640024,5.527052148339507,-0.012697548899806566,5.018112983384164,0.30784395914762586,0.3302480367686884,0.2401765140722678,0.40017785950202844,0.2583659196267245,0.08391617517118255,0.1328955115440098,0.005127994494794841,-0.12126144570526376,0.010218197133451401,0.005127994494794841,up
8/25/2005,30.98999977,30.51000023,30.51000023,30.82999992,3194800,27.26974106,wait or hold,0.3330501185516823,0.3509216189019069,25.78508998372587,20.82848472512633,20.059435429084626,51.31253272529364,52.1898294773021,52.1898294773021,-50.2564000666202,49.7435999333798,46.15384937102862,3.5897505623511776,-0.017871500350224556,4.9566052585995415,0.3027715033561389,0.32949237390721686,0.23177367163153084,0.3830156802691296,0.24294194951703707,0.0809326151625489,0.08920165038293604,-0.005128001332404208,-0.09165787586632879,0.005923781961064023,-0.005128001332403986,up
8/26/2005,31.0,30.125,30.77000046,30.22999954,3045200,26.73903084,wait or hold,0.3238521720620291,0.34991887642650454,25.20982275958875,21.345443494746696,19.814460265302134,39.28963520544832,46.585858752970026,46.585858752970026,-70.76923890072526,29.230761099274744,43.07692025246471,-13.846159153189966,-0.026066704364475446,3.8643792648420536,0.2948116582429101,0.32839019970084893,0.21846411340290017,0.3521605003248798,0.27379151680009195,0.027951923602653528,-0.3040475080537002,-0.41538477801450524,-0.1556016956595654,-0.15874847700488304,-0.41538477801450513,up
8/29/2005,31.51000023,30.38500023,31.375,30.87000084,5745800,27.30511665,wait or hold,0.3184065348594558,0.3487515616786301,25.68185090794176,20.656930259753572,19.627573123610688,52.995373144116,52.450842588842974,52.450842588842974,-48.8888468907773,51.111153109222705,43.361838047292366,7.749315061930339,-0.03034502681917428,5.024920648188189,0.29009903801576686,0.32710713427041127,0.21151583222129067,0.37747832279952087,0.23270441930527186,0.08424639509937193,0.1830163847792965,0.022223062184453912,-0.14968061934408328,0.013593632645783504,0.022223062184453912,up
8/30/2005,31.71500015,31.125,31.125,31.60000038,5882000,27.95081329,wait or hold,0.3169425585864971,0.3475732648101709,25.65159600446425,20.217268078527866,19.46548891426256,63.85425833524199,58.10191825533967,58.10191825533967,-23.931591175387716,76.06840882461228,52.13677434436986,23.931634480242415,-0.03063070622367381,5.434327925936383,0.2888321221454362,0.32581199773464364,0.21105186980347956,0.3758555630596543,0.20646753381535654,0.10410554588750953,0.5479920927649784,0.5213681764922453,0.03267747980489433,0.17965006680041062,0.5213681764922455,up
8/31/2005,32.60499954,31.53000069,32.04999924,31.91500092,11823600,28.22943306,wait or hold,0.3168845899089554,0.3464364747513435,27.18916758521922,19.673236432649347,19.394089065592784,67.62005013569248,60.294770658269115,60.294770658269115,-21.362189420002224,78.63781057999778,68.60579083794421,10.032019742053564,-0.029551884842388076,7.515931152569873,0.28878195641603455,0.32456248381493813,0.2128039477221677,0.45832514556110904,0.17400238988141115,0.20507803613281927,0.23450046040614536,0.5727562115999554,0.3749316501994555,0.24408687001235752,0.5727562115999556,up
9/1/2005,33.29000092,32.16500092,32.54999924,33.23500061,7270200,29.39700699,wait or hold,0.32366828202127707,0.3455930851368683,27.957596248213807,19.005182068251493,19.387186929476183,78.54695945975953,67.88097913124253,67.88097913124253,-1.404860717120776,98.59513928287923,84.43378622916306,14.16135305371617,-0.02192480311559125,8.952414179962314,0.29465252095678873,0.323635463865354,0.2251908374421554,0.499540781836201,0.13413617757522522,0.27475763050273816,0.32763336119584685,0.9719027856575844,0.7038643119491204,0.4670070363877865,0.9719027856575846,up
9/2/2005,33.15999985,32.41999817,33.04499817,32.625,5840600,28.85744095,wait or hold,0.3261484736951452,0.34487281301021944,27.394479254350124,18.62238302862413,19.380428587862014,66.45605112968362,61.9868734397738,61.9868734397738,-16.985970976476747,83.01402902352325,86.7489929621334,-3.73496393861015,-0.018724339315074223,8.772096225725992,0.29679886325148663,0.3228437697075497,0.23038860423814156,0.4693372947500194,0.1112926058576098,0.2660109334174212,-0.07599981373821896,0.6602805804704648,0.7519782451638832,0.29380918319702354,0.660280580470465,up
9/6/2005,33.17499924,32.49000168,33.14500046,33.09000015,3225200,29.26873779,wait or hold,0.330560577572939,0.34434265839311606,26.966117377716316,18.30589071625612,19.375197129622627,70.49521618498643,64.51621384362385,64.51621384362385,-5.108575300155884,94.89142469984412,92.1668643354155,2.7245603644286263,-0.013782080820177067,8.660226661460197,0.3006170702317319,0.3222610450711729,0.2384151618570114,0.4463615675918837,0.09240589484942507,0.26058446772883603,0.06968816799105326,0.8978284939968821,0.8645708260803324,0.3681336610511563,0.8978284939968824,up
9/7/2005,33.65000153,32.82500076,33.25,33.19499969,4300200,29.36161423,wait or hold,0.3347733243260791,0.34398819236985806,27.592894255113055,17.931053735355913,19.413706433176124,71.40238542267177,65.08121815468107,65.08121815468107,-10.64331408555062,89.35668591444939,89.0873798792722,0.26930603517718055,-0.009214868043778968,9.661840519757142,0.3042627548086072,0.32187143027230647,0.2458326202002461,0.47997953247069214,0.07003745979811549,0.3091698293589764,0.01431241103439529,0.7871337182889875,0.8005739020265197,0.38473627030878776,0.7871337182889877,up
9/8/2005,34.07500076,33.22499847,33.34999847,33.74499893,4125200,29.84810829,wait or hold,0.34124810615340095,0.34388669494441737,28.04460854216409,17.53980887242944,19.48935247204698,75.92582482579922,67.95917863048513,67.95917863048513,-7.951848412816972,92.04815158718303,92.09875406715882,-0.05060247997579381,-0.0026385887910164163,10.504799669734652,0.30986599032921025,0.3217598683837084,0.25651293657677243,0.5042077954857704,0.04668988271404095,0.35005931466495066,0.007097200792254066,0.8409630317436603,0.8631553788757811,0.46930492280149894,0.8409630317436605,up
9/9/2005,35.38999939,33.95500183,34.08499908,35.25500107,5639600,31.183736800000002,sell,0.3551020190632812,0.3443021275755625,30.11983910585559,16.838402161194786,19.672564002033727,84.0213040679471,74.23715547957941,74.23715547957941,-2.4702345159130705,97.52976548408694,92.97820099523976,4.551564488847177,0.010799891487718705,13.281436944660804,0.32185507953503034,0.3222164952263562,0.27833792537059665,0.6155153926890582,0.004833365709967508,0.48474587575885697,0.11089438241343386,0.9505953096817386,0.8814317816527062,0.6537828011365063,0.9505953096817386,down
9/12/2005,35.27000046,34.52000046,35.25,34.99000168,7421400,30.94934464,sell,0.36599333976285564,0.3451055994036267,29.56925451221668,16.530599560428318,19.851958625145752,78.60905442383739,71.58622978829624,71.58622978829624,-7.319262562142854,92.68073743785715,94.08621816970901,-1.405480731851867,0.020887740359228968,13.038654951788363,0.33128036005222383,0.3230996391503038,0.29472126515365904,0.5859840966261856,-0.013534785872445276,0.47296923067424324,-0.023460696158741356,0.8536147487571426,0.9044582628623679,0.575885548740261,0.8536147487571428,down
9/13/2005,35.49499893,34.15499878,34.99000168,34.22499847,9336400,30.27267265,sell,0.37136746246172336,0.3460783701223487,28.614813080325135,16.876244818598614,19.97596203714173,64.59530019839268,64.43321534543728,64.43321534543728,-23.649920168606034,76.35007983139397,88.85352758444598,-12.503447753052015,0.025289092339374653,11.73856826172652,0.3359310920770944,0.32416886960696223,0.3018693544950082,0.5347914319103502,0.007091630148747141,0.40990582408900744,-0.27376402203307193,0.5270015966278792,0.7957140536444478,0.36569475641380333,0.5270015966278794,down
9/14/2005,34.97999954,34.13000107,34.5,34.59999847,5458400,30.60437775,sell,0.3779040020559812,0.3472572245752901,28.02871701808398,16.590817705673054,20.09384379427992,67.8709304465998,66.21531575388116,66.21531575388116,-16.666678553695697,83.33332144630431,84.12137957185176,-0.788058125547451,0.030646777480691056,11.437899312410927,0.3415877723812588,0.3254646190171713,0.3105705927112892,0.5033554336363437,-0.009941261915491273,0.3953212518884084,-0.009535359064769655,0.666666428926086,0.6973719703229198,0.41806164310869565,0.666666428926086,down
9/15/2005,35.07500076,34.32500076,34.84999847,35.04999924,4884200,31.00240326,sell,0.38592247325118123,0.34868941980361523,27.750318949677045,16.290148172257833,20.217345176374238,71.55530682204464,68.26990765963916,68.26990765963916,-8.28677427688059,91.71322572311942,83.7988756669392,7.914350056180226,0.037233053447566,11.460170777419211,0.3485269069838006,0.3270388304202634,0.32126714441866766,0.4884232036458165,-0.027883746976474222,0.39640157558051503,0.18673858073351823,0.8342645144623881,0.6906697907199106,0.4784356719924112,0.8342645144623881,down
9/16/2005,35.52999878,34.75,35.11999893,35.33000183,4589600,31.25007248,sell,0.39436645069030263,0.3503813311673716,28.32787688578124,15.982508308391028,20.376590437523763,73.74123420807761,69.51231396523055,69.51231396523055,-3.8872110080575077,96.1127889919425,90.38644538712204,5.726343604820457,0.04398511952293105,12.345368577390213,0.3558342720169212,0.3288985113556351,0.33223295032628886,0.5194012488029256,-0.04624218721780793,0.43933993437970553,0.13739032706114274,0.9222557798388495,0.8275706925058299,0.5149436879973761,0.92225577983885,down
9/19/2005,37.27999878,36.26499939,36.54999924,36.34999847,6083000,32.15229034,sell,0.4072725807548565,0.3524886177546541,31.15295342853078,15.24732664202173,20.66622732768459,80.20598574923508,73.57188280977559,73.57188280977559,-15.109674968936337,84.89032503106367,90.90544658204182,-6.015121550978151,0.054783963000202385,15.90562678650905,0.3670031559021014,0.33121475603350814,0.3497709927975534,0.6709277766936204,-0.0901142281130295,0.6120376573134001,-0.12742644284994098,0.697806500621273,0.8383564199638334,0.6342338136856556,0.6978065006212733,down
9/20/2005,36.47999954,35.5,36.30500031,35.85499954,4684400,31.7144413,sell,0.4159451626259276,0.35483907848588764,30.434414988546976,16.69611967138825,20.842961296103006,70.39383001573343,68.78513812685287,68.78513812685287,-24.782603710395296,75.21739628960471,85.40683677087026,-10.18944048126555,0.061106084140039985,13.738295317158727,0.37450835377460234,0.33379828795181754,0.36003853943736885,0.6323880651781315,-0.0036573563754914717,0.5069067405049879,-0.22157394838092448,0.504347925792094,0.7240859570020544,0.4935756805859204,0.5043479257920942,down
9/21/2005,37.11999893,36.18000031,36.47499847,37.02000046,5491200,32.74491119,sell,0.42983311414686654,0.3576168838293885,31.02926477179011,16.20343869337235,21.06266835333582,77.8382453120903,73.2039530736948,73.2039530736948,-5.083058236118226,94.91694176388177,85.00822102818334,9.908720735698424,0.07221623031747804,14.825826078417759,0.3865268997806115,0.33685153988341576,0.3780821582685867,0.6642935802703487,-0.033058143969334375,0.5596596800554783,0.23171957708681878,0.8983388352776351,0.7158020439722295,0.623422226016559,0.8983388352776356,down
9/22/2005,37.90999985,35.66999817,37.27000046,36.94499969,6014200,32.67857361,sell,0.4416999845573031,0.3607313410072317,31.24399647344977,15.38255768924337,21.332571881879712,76.39545854663263,72.49247509582457,72.49247509582457,-17.577411014562667,82.42258898543733,84.1856423463079,-1.7630533608705719,0.08096864355007138,15.861438784206399,0.39679641488945583,0.34027482597377423,0.39229666145333564,0.6758109847329128,-0.08204430158274623,0.6098942264355187,-0.03152538207049782,0.6484517797087463,0.6987074600631431,0.6025154990574564,0.6484517797087466,down
9/23/2005,36.84999847,36.00999832,36.54499817,36.22000122,4111000,32.0372963,sell,0.4480935053392443,0.3639672451229244,30.58350449595589,15.057373426861448,21.596852420245607,63.18692782618282,65.83179359597185,65.83179359597185,-31.180797059198973,68.81920294080102,82.05291123004001,-13.23370828923899,0.08412626021631991,15.526131069094442,0.4023293276118456,0.3438316016545544,0.39742484164385306,0.6403846681234873,-0.10144970559418931,0.5936294289178501,-0.2902343035371707,0.3763840588160201,0.6543856804864618,0.4067918732949092,0.3763840588160208,down
9/26/2005,37.40000153,35.75,35.75500107,37.26499939,4160000,32.96162033,sell,0.4591634536229279,0.36749331225786247,30.684431559450314,14.504753184325098,21.892841238906115,71.47920522124721,70.09668689651214,70.09668689651214,-12.68437709789244,87.31562290210755,79.51913827611526,7.796484625992292,0.0916701413650654,16.179678375125214,0.4119091913182389,0.3477073128579633,0.4096766080726688,0.6457980179106861,-0.13442737490933154,0.6253310991202761,0.18408024618221774,0.7463124580421507,0.6017295695005966,0.5321154427060271,0.7463124580421512,down
9/27/2005,37.5,36.70000076,37.22000122,37.43000031,3403400,33.10756302,sell,0.4697010228862766,0.37127907420006495,30.359861376441245,14.245863378408217,22.189352950168214,72.61550801286324,70.71818456900881,70.71818456900881,-10.24545141115843,89.75454858884157,81.96312481058335,7.7914237782582205,0.09842194868621162,16.113997998033028,0.42102833756468994,0.35186847015058786,0.4206419937461705,0.6283892885739775,-0.1498766504722453,0.6221451359403598,0.18396610392380586,0.7950909717768313,0.6525197659969215,0.5503781051478092,0.7950909717768315,down
9/28/2005,38.04999924,36.75,37.55500031,37.97000122,5937200,33.58519745,sell,0.4817982113664385,0.3753726787708813,30.70358700061176,13.836024794925281,22.516052331730467,76.23122308848275,72.71671029159309,72.71671029159309,-1.9535548375352436,98.04644516246475,91.70553888447125,6.340906277993497,0.1064255325955572,16.867562205686475,0.431497168484281,0.3563679956815211,0.43364034813660757,0.6468254440513539,-0.17433380972622892,0.6586983337990886,0.15125116128056137,0.9609289032492947,0.854983698667082,0.6091046334486383,0.9609289032492949,down
9/29/2005,38.5,37.72499847,38.15000153,37.90499878,7256200,33.52770996,sell,0.4919885656283185,0.37969209376168817,31.174582087735963,13.597849270301168,22.864841592001337,74.84342864891718,72.07897537069991,72.07897537069991,-13.615591892147217,86.38440810785279,91.395133953053,-5.010725845200213,0.11229647186663033,17.576732817434795,0.4403158370495681,0.36111572294574845,0.44317514531178737,0.6720878569897468,-0.18854695844109504,0.6930981280350077,-0.10477332222254465,0.7276881621570557,0.8485329563091286,0.5903648406818824,0.7276881621570555,down
9/30/2005,38.0,37.34500122,37.875,37.45000076,4832400,33.12524796,sell,0.4982470061936439,0.3840833180364153,30.71816450002716,14.248146630168526,23.1515628202863,65.15668371233414,67.6092906923671,67.6092906923671,-24.027448446080008,75.97255155392,86.80113494141249,-10.828583387492486,0.1141636881572286,16.470017869858637,0.44573185220103473,0.36594238008724367,0.4462076291769783,0.647607326537835,-0.14974039719066246,0.6394146196609369,-0.23598916468423325,0.5194510310783997,0.7530618441673731,0.45902349201088755,0.5194510310784,down
10/3/2005,39.18500137,37.99000168,38.02500153,39.04499817,8093200,34.53606033,sell,0.512155830423282,0.3888270581574071,32.14992587246231,13.705329274216613,23.50722854367317,77.21652185849352,73.75360130323398,73.75360130323398,-2.769598253040704,97.23040174695929,86.52912046957732,10.701281277381966,0.12332877226587496,18.4445965982457,0.4577684613180355,0.3711565084714752,0.46109233740415667,0.724401645647492,-0.18213307824943592,0.7351956642133639,0.24959497166685218,0.9446080349391854,0.7474089208474175,0.6395735979717787,0.9446080349391861,down
10/4/2005,38.99499893,37.375,38.99499893,37.49000168,5851800,33.16064453,sell,0.5157675536864943,0.39352885743714533,30.989365399315748,14.539965824157205,23.770187034552563,55.404956503989425,61.504276933552276,61.504276933552276,-34.876532453768625,65.12346754623138,79.44214028237019,-14.318672736138808,0.12223869624934897,16.449399575158544,0.46089402394218815,0.3763245371695394,0.4593219812067566,0.6621535273250316,-0.13232605703728484,0.6384144864300487,-0.3147045699378236,0.30246935092462746,0.6001294202456886,0.2796281210969811,0.3024693509246277,down
10/5/2005,37.88999939,35.625,37.79999924,35.70999908,6616400,31.58617783,wait or hold,0.508588928565878,0.39779060291990165,29.513638394341207,17.526850262242416,23.805846740489596,40.22905641128702,51.0518668793216,51.0518668793216,-78.35402968545188,21.64597031454812,61.33327986924622,-39.6873095546981,0.11079832564597636,11.986788132098791,0.4546816868569139,0.38100887642954184,0.44074205587019155,0.5830010563053638,0.04591657632994939,0.4219462447220934,-0.8868682965422937,-0.5670805937090377,0.22379650443964527,-0.027515163537806475,-0.5670805937090375,down
10/6/2005,34.70000076,32.97499847,34.00999832,33.70000076,11419000,29.80830193,wait or hold,0.49015009147967703,0.401211526748488,27.87657508590074,21.929088187771384,23.558670491658898,29.56169480987741,42.30816982690522,42.30816982690522,-88.32525037951271,11.674749620487281,32.814729160422225,-21.13997953993494,0.08893856473118905,5.947486898129355,0.4387248330701121,0.38476901833866406,0.405240345326638,0.49519511005520944,0.3086205733611893,0.12899738821898343,-0.46855218694171086,-0.7665050075902544,-0.36886747871393444,-0.28444804491129216,-0.7665050075902542,down
10/7/2005,34.59500122,33.70000076,34.25,34.53499985,6205400,30.54688835,wait or hold,0.4769876685881158,0.40401821013603506,27.369217321179384,21.529975558940865,23.316643748012172,37.58319834387446,46.41407747514907,46.41407747514907,-74.87921656204064,25.120783437959357,19.48050112433155,5.640282313627807,0.07296945845208075,5.839241762238519,0.42733415498239946,0.3878540118550249,0.37930545102609514,0.4679823392423561,0.2848034865446414,0.12374673296057659,0.13544930242362052,-0.4975843312408129,-0.6459754138553382,-0.16379625695562594,-0.4975843312408128,down
10/10/2005,35.15000153,33.41500092,35.125,33.88999939,4973600,29.97635841,wait or hold,0.46057281439542663,0.40611293982349134,27.529872174141257,20.781177349172147,23.121906530894083,34.08509816858519,43.819757521206924,43.819757521206924,-85.26569254903251,14.73430745096749,17.176613503138004,-2.4423060521705136,0.054459874571935296,6.74869482496911,0.4131288432775506,0.3901564544935512,0.34924465156190565,0.47659926401934305,0.24011887703379986,0.16786164368429057,-0.04684523366283744,-0.7053138509806502,-0.6938541166777896,-0.2400301540102905,-0.7053138509806501,down
10/11/2005,35.40000153,34.40000153,34.40000153,35.18000031,4762000,31.11739922,wait or hold,0.4518365000437896,0.40780649432693106,27.200816180260357,20.158030130394614,22.950014932993426,45.84611585528059,49.856506039263714,49.856506039263714,-64.49274057504878,35.50725942495123,25.12078343795932,10.386475986991908,0.044030005716858556,7.042786049865743,0.4055684917167175,0.3920179415019882,0.3323058485007211,0.4589499325835771,0.20293250322096523,0.18212714969291244,0.2424948594537828,-0.2898548115009755,-0.5287607553604021,-0.06264075207043152,-0.2898548115009757,down
10/12/2005,35.29999924,33.86999893,35.18000031,34.14500046,5791200,30.20193291,wait or hold,0.43740808780502505,0.40890290531902596,26.43418172878032,20.634487057131626,22.72859323268321,39.28490419171393,45.620875771606926,45.620875771606926,-81.15939704311577,18.840602956884222,23.02738994426761,-4.186786987383389,0.028505182485999092,5.799694671648695,0.3930822344005245,0.3932230723752772,0.3070924995199016,0.417830531096105,0.23136511890063538,0.12182841914951026,-0.08619022172903223,-0.6231879408623155,-0.5722650322413179,-0.18710442945745331,-0.6231879408623155,down
10/13/2005,33.75,31.80500031,33.75,32.95000076,7384000,29.16200066,buy,0.41684108048716695,0.40919692618474196,25.24511328587592,23.675884590087517,22.32190752462667,32.93565828270356,41.26214361551864,41.26214361551864,-84.48509098181619,15.514909018183815,23.287590466673052,-7.772681448489237,0.007644154302424988,1.5692286957884036,0.37528367546381447,0.39354624828761287,0.27321279758257755,0.35405335201750177,0.4128608267620997,-0.0833791242551476,-0.16706641356980345,-0.6897018196363238,-0.5668576228816362,-0.31518544659305237,-0.6897018196363237,up
10/14/2005,33.67499924,32.0,32.95000076,33.46500015,6775800,29.61779213,buy,0.4000427476312822,0.40885786656824374,24.441385627552183,22.92211640276152,21.923694435487974,37.97580623464772,43.75613705892916,43.75613705892916,-77.50678046650577,22.493219533494223,18.94957716952072,3.543642363973504,-0.008815118936961519,1.519269224790662,0.36074650373274153,0.39317356759152977,0.24648183942709845,0.3109444098020868,0.367879633333819,-0.0858025122156566,0.08816172700039582,-0.5501356093301156,-0.6570089165400479,-0.24189963651744362,-0.5501356093301155,up
10/17/2005,34.75,34.04999924,34.25,34.40499878,4854800,30.44972992,buy,0.38910464857194427,0.4081262327249904,25.882519790253987,22.364265586319863,21.618871726322254,46.53254761688023,48.08869473345216,48.08869473345216,-64.7696734883667,35.2303265116333,24.412818354437075,10.817508157196226,-0.01902158415304611,3.5182542039341236,0.3512807415168573,0.3923693850917145,0.2299058587845486,0.38824145028734613,0.33458982898760015,0.011162408247844535,0.25221635038584944,-0.29539346976733405,-0.5434734737807012,-0.11458775455735581,-0.29539346976733416,up
10/18/2005,34.33000183,32.15999985,34.04999924,32.22000122,6142200,28.51592445,buy,0.36637934483943724,0.4065799841727881,24.805395176027663,24.93707890621874,21.173993793733487,33.8633794520463,40.3147477086566,40.3147477086566,-94.37668224399958,5.623317756000428,21.115621267042613,-15.492303511042184,-0.040200639333350885,-0.13168373019107804,0.33161440642072204,0.39066981086136465,0.19550965978090318,0.3304685190305987,0.488122726160902,-0.16588541610890173,-0.3411746149240462,-0.8875336448799914,-0.6119948365599449,-0.34302460418191705,-0.8875336448799916,up
10/19/2005,33.20999908,31.09499931,32.22000122,33.16500092,7813400,29.352289199999998,buy,0.350021645324162,0.404485142795463,23.850418076083166,25.915623674543497,20.819323692429858,41.85170506506425,44.49404767639188,44.49404767639188,-74.41284199129119,25.58715800870881,22.14693409211414,3.440223916594668,-0.05446349747130097,-2.065205598460331,0.31745855601467765,0.38836724545782597,0.17234582632860151,0.2792471230860911,0.5465174849771315,-0.2596749123418862,0.08582922940996052,-0.4882568398258239,-0.5905624021762739,-0.22021618842858415,-0.4882568398258238,up
10/20/2005,32.90499878,29.97999954,32.75,30.53499985,10968800,27.02462959,buy,0.3198722117153281,0.40135120363399523,22.517192235415575,26.423873058492497,20.551888174950122,30.06200520262965,36.775963553091096,36.775963553091096,-93.97066594608165,6.029334053918346,12.41326993954249,-6.383935885624144,-0.08147899191866714,-3.906680823076922,0.29136742555986817,0.38492254555448313,0.12847086045865996,0.2077378809563557,0.5768473187822918,-0.34899949484423476,-0.13574467396521395,-0.8794133189216331,-0.7928444966011281,-0.44701151088713154,-0.8794133189216331,up
10/21/2005,31.53499985,30.18000031,30.40999985,30.625,7919000,27.10428429,buy,0.29198184072331657,0.39730032853651204,21.983276103121923,25.797323710949104,20.29002423075121,30.83982638404177,37.17756415493967,37.17756415493967,-92.8452523167614,7.154747683238596,12.923746581955214,-5.768998898716618,-0.10531848781319547,-3.814047607827181,0.26723127370285993,0.38046998654238684,0.0897539281897779,0.17910061874874605,0.5394579225884941,-0.34450612823934,-0.12187539748132614,-0.8569050463352281,-0.7822359238413076,-0.43521050735559175,-0.8569050463352281,up
10/24/2005,32.27000046,30.20000076,30.22500038,32.06000137,5077000,28.37432289,buy,0.27364188893412233,0.3927202143545641,22.465737227921235,24.87701897006645,19.973424627325603,42.695159676232606,43.35575980307788,43.35575980307788,-73.7041483003315,26.2958516996685,13.15997781227511,13.13587388739339,-0.11907832542044178,-2.411281742145217,0.2513599946309182,0.3754357092105747,0.06740703364857037,0.20497802701603773,0.48453864334766994,-0.27646205486513764,0.3045047246216801,-0.47408296600663,-0.7773266371339946,-0.2536646921187067,-0.4740829660066299,up
10/25/2005,33.79499817,32.10499954,32.46500015,33.50999832,7032600,29.65761757,buy,0.2642623543952638,0.3879623438053168,24.404593732902285,24.139856090728735,19.5686730934065,52.32852158841046,48.83157054295373,48.83157054295373,-34.87089513042776,65.12910486957225,32.85990141749308,32.26920345207917,-0.123699989410053,0.2647376421735501,0.24324300436059199,0.37020604922782185,0.05990114290125881,0.30897103033202344,0.4405483733665656,-0.14665617364714068,0.7360374563320868,0.3025820973914448,-0.3679287223908312,-0.09275840467324126,0.3025820973914448,up
